N=100 	 R=1000000 	 s=1 	 Save [density, Z, rho_t, like/unlike, events per sweep]
0.0001340 	 1.0005101 	 1.1028 	 1.001 	 10.124
0.0132511 	 1.1626507 	 12.2215 	 0.951 	 46.751
0.0260767 	 1.1528186 	 22.9191 	 1.004 	 78.898
0.0384906 	 1.1917866 	 33.6532 	 1.013 	 88.252
0.0505179 	 1.2395668 	 44.0622 	 1.016 	 92.032
0.0621697 	 1.2921931 	 54.3477 	 1.018 	 93.802
0.0734612 	 1.3482640 	 65.4843 	 1.019 	 94.780
0.0844343 	 1.4076354 	 75.8671 	 1.020 	 95.242
0.0950679 	 1.4695943 	 86.5262 	 1.021 	 95.507
0.1054174 	 1.5338113 	 96.8160 	 1.022 	 95.675
0.1154572 	 1.6001267 	 106.3673 	 1.024 	 95.737
0.1252245 	 1.6685270 	 116.9519 	 1.025 	 95.806
0.1347210 	 1.7385418 	 126.5914 	 1.026 	 95.791
0.1439702 	 1.8103435 	 137.0816 	 1.027 	 95.882
0.1529649 	 1.8842489 	 147.3945 	 1.028 	 95.836
0.1617163 	 1.9599321 	 158.3490 	 1.030 	 95.849
0.1702435 	 2.0370214 	 168.7023 	 1.031 	 95.788
0.1785597 	 2.1157949 	 179.0605 	 1.032 	 95.798
0.1866618 	 2.1962720 	 189.8216 	 1.034 	 95.762
0.1945644 	 2.2783143 	 199.3595 	 1.035 	 95.768
0.2022711 	 2.3622108 	 209.9242 	 1.036 	 95.732
0.2097965 	 2.4477729 	 219.5945 	 1.038 	 95.707
0.2171381 	 2.5341386 	 229.1453 	 1.039 	 95.674
0.2243122 	 2.6226725 	 240.0063 	 1.040 	 95.663
0.2313205 	 2.7132906 	 251.7915 	 1.041 	 95.697
0.2381655 	 2.8038352 	 263.2136 	 1.042 	 95.623
0.2448666 	 2.8972039 	 274.9459 	 1.044 	 95.631
0.2514085 	 2.9921831 	 285.4415 	 1.044 	 95.615
0.2578117 	 3.0883275 	 294.2891 	 1.045 	 95.582
0.2640735 	 3.1862149 	 304.9183 	 1.047 	 95.585
0.2702057 	 3.2852933 	 311.9581 	 1.047 	 95.575
0.2762008 	 3.3862609 	 322.3069 	 1.049 	 95.561
0.2820745 	 3.4894574 	 334.4109 	 1.050 	 95.565
0.2878285 	 3.5928280 	 346.2453 	 1.051 	 95.560
0.2934653 	 3.6977693 	 359.3453 	 1.052 	 95.531
0.2989929 	 3.8051904 	 368.4930 	 1.054 	 95.523
0.3044043 	 3.9126228 	 379.9032 	 1.054 	 95.481
0.3097139 	 4.0227373 	 387.8769 	 1.054 	 95.501
0.3149176 	 4.1346696 	 401.0494 	 1.056 	 95.486
0.3200218 	 4.2476970 	 409.1616 	 1.056 	 95.440
0.3250252 	 4.3616795 	 420.5896 	 1.058 	 95.458
0.3299336 	 4.4792523 	 430.9559 	 1.059 	 95.467
0.3347565 	 4.5944058 	 442.2444 	 1.060 	 95.420
0.3394885 	 4.7132834 	 453.9777 	 1.061 	 95.404
0.3441337 	 4.8339701 	 464.0827 	 1.061 	 95.402
0.3486991 	 4.9554969 	 473.7666 	 1.062 	 95.399
0.3531827 	 5.0780049 	 484.7226 	 1.064 	 95.367
0.3575856 	 5.2030753 	 494.9579 	 1.064 	 95.384
0.3619105 	 5.3300185 	 505.9345 	 1.065 	 95.377
0.3661598 	 5.4577462 	 517.4458 	 1.066 	 95.349
0.3703424 	 5.5868708 	 527.4799 	 1.066 	 95.367
0.3744497 	 5.7188685 	 536.5165 	 1.067 	 95.372
0.3784862 	 5.8486633 	 547.8673 	 1.068 	 95.327
0.3824538 	 5.9817287 	 558.6491 	 1.068 	 95.327
0.3863610 	 6.1163800 	 571.5812 	 1.070 	 95.313
0.3902034 	 6.2546298 	 586.3767 	 1.070 	 95.291
0.3939837 	 6.3906559 	 599.7323 	 1.071 	 95.293
0.3977005 	 6.5286661 	 607.5606 	 1.071 	 95.277
0.4013600 	 6.6700111 	 614.3241 	 1.073 	 95.281
0.4049637 	 6.8123769 	 621.8976 	 1.073 	 95.274
0.4085095 	 6.9545231 	 633.3301 	 1.073 	 95.243
0.4120005 	 7.0988455 	 646.2243 	 1.074 	 95.252
0.4154382 	 7.2459640 	 663.0896 	 1.075 	 95.242
0.4188248 	 7.3933187 	 668.3500 	 1.076 	 95.248
0.4221611 	 7.5427476 	 673.4992 	 1.076 	 95.233
0.4254474 	 7.6906159 	 686.6562 	 1.076 	 95.209
0.4286848 	 7.8434708 	 698.1857 	 1.077 	 95.210
0.4318726 	 7.9964372 	 708.6277 	 1.077 	 95.208
0.4350146 	 8.1487274 	 724.8381 	 1.078 	 95.148
0.4381126 	 8.3051196 	 737.1842 	 1.079 	 95.189
0.4411689 	 8.4629396 	 752.7506 	 1.079 	 95.220
0.4441805 	 8.6206855 	 767.0081 	 1.080 	 95.163
0.4471498 	 8.7811159 	 776.3898 	 1.081 	 95.202
0.4500780 	 8.9419990 	 785.0272 	 1.081 	 95.172
0.4529652 	 9.1028215 	 801.5398 	 1.081 	 95.160
0.4558139 	 9.2674960 	 811.3668 	 1.082 	 95.150
0.4586233 	 9.4301430 	 828.2019 	 1.083 	 95.140
0.4613929 	 9.5982263 	 835.6340 	 1.083 	 95.138
0.4641267 	 9.7652771 	 846.7474 	 1.082 	 95.132
0.4668257 	 9.9335605 	 857.3181 	 1.083 	 95.114
0.4694875 	 10.1064827 	 859.6560 	 1.083 	 95.137
0.4721153 	 10.2775185 	 867.1664 	 1.083 	 95.109
0.4747113 	 10.4523748 	 880.7329 	 1.084 	 95.131
0.4772682 	 10.6255417 	 891.0358 	 1.084 	 95.100
0.4797952 	 10.8024148 	 899.7270 	 1.084 	 95.116
0.4822888 	 10.9787876 	 910.1287 	 1.085 	 95.099
0.4847514 	 11.1572368 	 923.2443 	 1.084 	 95.085
0.4871853 	 11.3324767 	 925.2353 	 1.085 	 95.043
0.4895896 	 11.5177327 	 939.0615 	 1.085 	 95.078
0.4919624 	 11.7024932 	 953.5083 	 1.086 	 95.080
0.4943069 	 11.8833982 	 968.0871 	 1.085 	 95.039
0.4966234 	 12.0708084 	 977.3350 	 1.086 	 95.065
0.4989105 	 12.2565229 	 991.8013 	 1.086 	 95.027
0.5011709 	 12.4457489 	 1007.3850 	 1.086 	 95.058
0.5034018 	 12.6317647 	 1021.2723 	 1.087 	 95.031
0.5056103 	 12.8227520 	 1035.3719 	 1.087 	 95.022
0.5077892 	 13.0164883 	 1050.7058 	 1.087 	 95.046
0.5099452 	 13.2114441 	 1065.6476 	 1.086 	 95.027
0.5120749 	 13.4042613 	 1074.7117 	 1.087 	 95.025
0.5141785 	 13.6014488 	 1075.7217 	 1.087 	 95.007
0.5162592 	 13.7948945 	 1089.8117 	 1.087 	 94.997
0.5183175 	 13.9935732 	 1102.1232 	 1.088 	 95.008
0.5203522 	 14.1979827 	 1121.5504 	 1.088 	 95.005
0.5223641 	 14.3991912 	 1134.2919 	 1.087 	 94.973
0.5243527 	 14.6037004 	 1146.4144 	 1.087 	 95.009
0.5263186 	 14.8060903 	 1158.0204 	 1.087 	 94.983
0.5282634 	 15.0166536 	 1169.3453 	 1.087 	 95.004
0.5301855 	 15.2256082 	 1175.0084 	 1.088 	 94.982
0.5320879 	 15.4313463 	 1179.9311 	 1.088 	 94.979
0.5339687 	 15.6421015 	 1188.0819 	 1.088 	 94.972
0.5358297 	 15.8564012 	 1203.3758 	 1.088 	 94.980
0.5376690 	 16.0677330 	 1222.3640 	 1.088 	 94.975
0.5394891 	 16.2826399 	 1232.7135 	 1.088 	 94.939
0.5412914 	 16.5031445 	 1239.7393 	 1.088 	 94.943
0.5430722 	 16.7215549 	 1251.8236 	 1.087 	 94.943
0.5448358 	 16.9346463 	 1268.2884 	 1.087 	 94.928
0.5465800 	 17.1605749 	 1289.0800 	 1.087 	 94.940
0.5483066 	 17.3821363 	 1307.9935 	 1.086 	 94.936
0.5500151 	 17.6013548 	 1350.5133 	 1.085 	 94.886
0.5517053 	 17.8335400 	 1383.4737 	 1.085 	 94.935
0.5533783 	 18.0534389 	 1426.0927 	 1.084 	 94.920
0.5550346 	 18.2827438 	 1470.9036 	 1.085 	 94.936
0.5566731 	 18.5165636 	 1537.3989 	 1.084 	 94.943
0.5582960 	 18.7415431 	 1640.7610 	 1.084 	 94.896
0.5599023 	 18.9797088 	 1764.6179 	 1.084 	 94.890
0.5614915 	 19.2137058 	 1929.0059 	 1.084 	 94.912
0.5630641 	 19.4465311 	 2189.2752 	 1.084 	 94.879
0.5646212 	 19.6905081 	 2514.9478 	 1.083 	 94.905
0.5661626 	 19.9288052 	 2944.0290 	 1.083 	 94.863
0.5676889 	 20.1785327 	 3503.4365 	 1.083 	 94.874
0.5691992 	 20.4258148 	 4290.9741 	 1.083 	 94.848
0.5706934 	 20.6832235 	 5235.7254 	 1.083 	 94.852
0.5721729 	 20.9476132 	 6405.9547 	 1.083 	 94.858
0.5736380 	 21.2200044 	 8102.1848 	 1.084 	 94.861
0.5750851 	 21.4932604 	 10053.3182 	 1.083 	 94.856
0.5765172 	 21.7794972 	 12324.6443 	 1.084 	 94.848
0.5779329 	 22.0660002 	 15210.0092 	 1.084 	 94.788
0.5793317 	 22.3760158 	 18311.2194 	 1.085 	 94.847
0.5807143 	 22.6735727 	 21978.2228 	 1.085 	 94.805
0.5820798 	 22.9901847 	 26118.2862 	 1.085 	 94.823
0.5834298 	 23.3103433 	 30821.6753 	 1.086 	 94.797
0.5847617 	 23.6454334 	 35587.7059 	 1.086 	 94.782
0.5860778 	 23.9874828 	 41553.2639 	 1.086 	 94.789
0.5873759 	 24.3377135 	 47442.7602 	 1.086 	 94.771
0.5886582 	 24.7032254 	 54075.6085 	 1.086 	 94.787
0.5899230 	 25.0714999 	 61416.4987 	 1.085 	 94.797
0.5911713 	 25.4522497 	 68438.4288 	 1.085 	 94.779
0.5924025 	 25.8360601 	 76892.3525 	 1.084 	 94.746
0.5936179 	 26.2366147 	 85257.3216 	 1.084 	 94.777
0.5948164 	 26.6449199 	 93676.0921 	 1.083 	 94.743
0.5959978 	 27.0665033 	 102381.1067 	 1.081 	 94.717
0.5971619 	 27.5001660 	 110442.8508 	 1.079 	 94.716
0.5983088 	 27.9402669 	 120053.2493 	 1.077 	 94.704
0.5994398 	 28.3973137 	 128976.9530 	 1.074 	 94.687
0.6005539 	 28.8632489 	 138066.9318 	 1.071 	 94.698
0.6016515 	 29.3491262 	 147174.5582 	 1.068 	 94.685
0.6027325 	 29.8380193 	 157204.6606 	 1.067 	 94.648
0.6037967 	 30.3511913 	 166538.5159 	 1.064 	 94.669
0.6048438 	 30.8718177 	 174355.3386 	 1.061 	 94.645
0.6058746 	 31.3978557 	 181535.2922 	 1.060 	 94.618
0.6068890 	 31.9448639 	 188854.2914 	 1.060 	 94.622
0.6078868 	 32.5075328 	 196237.6331 	 1.059 	 94.608
0.6088675 	 33.0792313 	 202233.1970 	 1.059 	 94.574
0.6098322 	 33.6667288 	 208037.4932 	 1.059 	 94.548
0.6107820 	 34.2625648 	 211410.6608 	 1.061 	 94.544
0.6117158 	 34.8886161 	 212888.7154 	 1.064 	 94.554
0.6126343 	 35.5083331 	 214196.3661 	 1.068 	 94.505
0.6135363 	 36.1505176 	 213409.1005 	 1.071 	 94.498
0.6144237 	 36.8054939 	 212570.8181 	 1.075 	 94.481
0.6152966 	 37.4551491 	 210728.7369 	 1.080 	 94.470
0.6161547 	 38.1331330 	 208274.0883 	 1.085 	 94.468
0.6169982 	 38.8074346 	 205331.5117 	 1.092 	 94.476
0.6178283 	 39.4986838 	 203467.7878 	 1.099 	 94.454
0.6186446 	 40.1820939 	 201904.4228 	 1.106 	 94.445
0.6194475 	 40.8811082 	 202379.8255 	 1.113 	 94.470
0.6202369 	 41.5849166 	 204308.4268 	 1.120 	 94.479
0.6210148 	 42.3011676 	 209264.9091 	 1.129 	 94.456
0.6217803 	 43.0198410 	 216519.2356 	 1.135 	 94.475
0.6225341 	 43.7476293 	 225227.8349 	 1.141 	 94.474
0.6232753 	 44.4833106 	 236250.6232 	 1.148 	 94.476
0.6240048 	 45.2305055 	 250406.0162 	 1.155 	 94.489
0.6247224 	 45.9811603 	 267793.4359 	 1.159 	 94.465
0.6254281 	 46.7502609 	 286529.4222 	 1.165 	 94.452
0.6261231 	 47.5494723 	 306609.8695 	 1.168 	 94.451
0.6268072 	 48.3681286 	 328421.4827 	 1.172 	 94.460
0.6274804 	 49.2203433 	 353379.2740 	 1.175 	 94.475
0.6281424 	 50.1009965 	 379639.0867 	 1.178 	 94.462
0.6287929 	 50.9849065 	 406506.3478 	 1.182 	 94.478
0.6294327 	 51.9272963 	 437768.6846 	 1.187 	 94.500
