N=100 	 R=1000000 	 s=1 	 Save [density, Z, rho_t, like/unlike, events per sweep]
0.0001344 	 1.0005155 	 1.1026 	 1.006 	 10.125
0.0132569 	 1.1626340 	 12.1727 	 0.950 	 46.788
0.0260845 	 1.1528659 	 22.7114 	 1.004 	 78.958
0.0384945 	 1.1917833 	 33.0775 	 1.013 	 88.245
0.0505099 	 1.2395242 	 43.7579 	 1.016 	 91.992
0.0621607 	 1.2920793 	 54.0207 	 1.018 	 93.789
0.0734650 	 1.3482838 	 64.6158 	 1.019 	 94.762
0.0844198 	 1.4074791 	 75.1377 	 1.020 	 95.233
0.0950685 	 1.4695775 	 85.2224 	 1.021 	 95.515
0.1054044 	 1.5338182 	 96.2474 	 1.022 	 95.706
0.1154516 	 1.6001353 	 106.1811 	 1.023 	 95.782
0.1252160 	 1.6684258 	 116.5831 	 1.025 	 95.810
0.1347238 	 1.7387716 	 126.9657 	 1.026 	 95.813
0.1439659 	 1.8102561 	 137.3375 	 1.027 	 95.868
0.1529472 	 1.8841151 	 149.2239 	 1.028 	 95.833
0.1617023 	 1.9596348 	 158.2928 	 1.030 	 95.813
0.1702315 	 2.0370372 	 170.4103 	 1.031 	 95.811
0.1785430 	 2.1156674 	 178.6304 	 1.033 	 95.789
0.1866483 	 2.1964842 	 188.4579 	 1.034 	 95.767
0.1945508 	 2.2784800 	 199.1035 	 1.035 	 95.741
0.2022563 	 2.3619876 	 210.8449 	 1.036 	 95.753
0.2097847 	 2.4473878 	 221.7208 	 1.037 	 95.706
0.2171341 	 2.5342622 	 231.4667 	 1.038 	 95.730
0.2243103 	 2.6227433 	 242.8380 	 1.040 	 95.691
0.2313185 	 2.7126070 	 253.1312 	 1.041 	 95.666
0.2381648 	 2.8039977 	 260.6775 	 1.042 	 95.645
0.2448571 	 2.8974195 	 269.4864 	 1.043 	 95.623
0.2514060 	 2.9919378 	 277.6310 	 1.044 	 95.635
0.2578085 	 3.0880847 	 289.3052 	 1.046 	 95.601
0.2640720 	 3.1860145 	 298.4901 	 1.047 	 95.586
0.2702018 	 3.2858504 	 309.4495 	 1.048 	 95.602
0.2762052 	 3.3861206 	 319.0471 	 1.048 	 95.554
0.2820800 	 3.4882793 	 330.9783 	 1.050 	 95.526
0.2878359 	 3.5928657 	 340.2440 	 1.051 	 95.557
0.2934754 	 3.6980322 	 351.8189 	 1.052 	 95.562
0.2990016 	 3.8061265 	 360.1529 	 1.053 	 95.546
0.3044157 	 3.9130125 	 367.9686 	 1.054 	 95.498
0.3097218 	 4.0232469 	 381.1985 	 1.054 	 95.496
0.3149238 	 4.1343938 	 389.1161 	 1.055 	 95.482
0.3200275 	 4.2483836 	 397.9639 	 1.057 	 95.482
0.3250320 	 4.3610068 	 409.2138 	 1.058 	 95.436
0.3299433 	 4.4783058 	 419.6549 	 1.059 	 95.416
0.3347637 	 4.5950205 	 428.1684 	 1.060 	 95.431
0.3394970 	 4.7141228 	 436.3835 	 1.061 	 95.412
0.3441435 	 4.8344706 	 454.3760 	 1.061 	 95.436
0.3487070 	 4.9561558 	 463.4644 	 1.062 	 95.396
0.3531907 	 5.0791144 	 472.5622 	 1.064 	 95.385
0.3575921 	 5.2032456 	 484.4801 	 1.064 	 95.353
0.3619133 	 5.3294130 	 494.9487 	 1.065 	 95.355
0.3661638 	 5.4585605 	 504.2804 	 1.066 	 95.358
0.3703396 	 5.5871176 	 513.5160 	 1.066 	 95.330
0.3744445 	 5.7173918 	 521.8971 	 1.068 	 95.338
0.3784790 	 5.8488023 	 534.1470 	 1.069 	 95.314
0.3824494 	 5.9813929 	 546.9962 	 1.069 	 95.298
0.3863565 	 6.1173601 	 559.2282 	 1.070 	 95.324
0.3901979 	 6.2536456 	 568.6304 	 1.071 	 95.323
0.3939804 	 6.3916418 	 577.9125 	 1.071 	 95.287
0.3976984 	 6.5303154 	 586.3430 	 1.072 	 95.272
0.4013575 	 6.6700273 	 598.9513 	 1.072 	 95.266
0.4049593 	 6.8130948 	 613.1205 	 1.073 	 95.275
0.4085062 	 6.9548743 	 624.0098 	 1.074 	 95.245
0.4119993 	 7.0992485 	 640.9766 	 1.074 	 95.262
0.4154373 	 7.2454285 	 651.2589 	 1.075 	 95.235
0.4188242 	 7.3908839 	 658.8085 	 1.076 	 95.215
0.4221593 	 7.5409460 	 670.9352 	 1.076 	 95.219
0.4254441 	 7.6911764 	 679.3036 	 1.076 	 95.220
0.4286804 	 7.8412878 	 688.2460 	 1.077 	 95.198
0.4318710 	 7.9964071 	 695.0312 	 1.078 	 95.194
0.4350146 	 8.1480030 	 706.6869 	 1.078 	 95.182
0.4381154 	 8.3064669 	 721.6431 	 1.079 	 95.184
0.4411683 	 8.4634612 	 731.1189 	 1.079 	 95.177
0.4441781 	 8.6208343 	 737.6094 	 1.080 	 95.144
0.4471467 	 8.7800875 	 752.8418 	 1.081 	 95.169
0.4500750 	 8.9401977 	 762.9575 	 1.081 	 95.163
0.4529620 	 9.1033905 	 769.7168 	 1.081 	 95.175
0.4558103 	 9.2667979 	 777.5533 	 1.082 	 95.146
0.4586210 	 9.4333272 	 791.9158 	 1.082 	 95.143
0.4613929 	 9.5995437 	 797.8305 	 1.082 	 95.145
0.4641272 	 9.7660757 	 809.4227 	 1.082 	 95.134
0.4668236 	 9.9327182 	 819.5622 	 1.083 	 95.108
0.4694849 	 10.1043311 	 830.6393 	 1.083 	 95.091
0.4721116 	 10.2773597 	 838.3123 	 1.083 	 95.140
0.4747062 	 10.4518607 	 850.2894 	 1.084 	 95.119
0.4772657 	 10.6267793 	 860.8533 	 1.084 	 95.099
0.4797917 	 10.8024594 	 875.0491 	 1.084 	 95.098
0.4822872 	 10.9764848 	 883.4704 	 1.084 	 95.089
0.4847506 	 11.1574576 	 900.5981 	 1.085 	 95.056
0.4871838 	 11.3390968 	 903.1512 	 1.085 	 95.071
0.4895855 	 11.5164720 	 914.4339 	 1.085 	 95.071
0.4919580 	 11.7021485 	 927.2759 	 1.086 	 95.075
0.4943009 	 11.8819261 	 941.7060 	 1.086 	 95.061
0.4966151 	 12.0702362 	 952.7237 	 1.086 	 95.058
0.4989019 	 12.2571599 	 962.8279 	 1.085 	 95.069
0.5011618 	 12.4391175 	 975.4976 	 1.086 	 95.041
0.5033941 	 12.6355051 	 984.0236 	 1.086 	 95.057
0.5055994 	 12.8256824 	 993.1392 	 1.086 	 95.029
0.5077787 	 13.0201346 	 1011.9300 	 1.086 	 95.036
0.5099344 	 13.2117237 	 1017.1990 	 1.086 	 95.029
0.5120655 	 13.4039583 	 1020.1747 	 1.086 	 95.031
0.5141706 	 13.5988126 	 1029.7999 	 1.088 	 95.015
0.5162527 	 13.8008474 	 1049.4997 	 1.088 	 95.008
0.5183100 	 13.9972785 	 1066.2293 	 1.087 	 95.008
0.5203431 	 14.1975000 	 1069.4223 	 1.088 	 95.004
0.5223536 	 14.4006092 	 1077.8916 	 1.087 	 95.010
0.5243426 	 14.6064663 	 1096.2820 	 1.087 	 95.014
0.5263090 	 14.8076246 	 1105.1802 	 1.087 	 94.982
0.5282535 	 15.0161478 	 1117.2276 	 1.087 	 94.959
0.5301756 	 15.2246614 	 1122.6750 	 1.088 	 94.948
0.5320756 	 15.4324489 	 1140.4583 	 1.087 	 94.961
0.5339575 	 15.6427152 	 1163.2715 	 1.087 	 94.951
0.5358189 	 15.8602352 	 1165.2741 	 1.087 	 94.957
0.5376586 	 16.0688318 	 1175.5673 	 1.087 	 94.949
0.5394786 	 16.2838484 	 1191.8786 	 1.087 	 94.966
0.5412792 	 16.4939479 	 1210.7301 	 1.087 	 94.914
0.5430621 	 16.7105316 	 1226.1942 	 1.086 	 94.891
0.5448254 	 16.9375996 	 1240.7488 	 1.087 	 94.949
0.5465699 	 17.1562842 	 1268.1927 	 1.086 	 94.951
0.5482951 	 17.3806683 	 1304.1545 	 1.085 	 94.924
0.5500025 	 17.6015729 	 1341.5627 	 1.086 	 94.925
0.5516936 	 17.8249288 	 1381.0608 	 1.086 	 94.948
0.5533662 	 18.0559403 	 1443.0486 	 1.086 	 94.903
0.5550218 	 18.2842896 	 1499.1115 	 1.086 	 94.910
0.5566612 	 18.5073838 	 1580.8248 	 1.085 	 94.890
0.5582833 	 18.7326020 	 1713.0233 	 1.084 	 94.897
0.5598906 	 18.9549185 	 1875.5268 	 1.083 	 94.870
0.5614804 	 19.2006305 	 2080.5094 	 1.082 	 94.929
0.5630556 	 19.4263295 	 2416.5407 	 1.081 	 94.915
0.5646156 	 19.6571767 	 2854.7354 	 1.080 	 94.880
0.5661587 	 19.8952383 	 3536.4499 	 1.078 	 94.903
0.5676888 	 20.1343759 	 4534.2009 	 1.076 	 94.894
0.5692038 	 20.3714448 	 5813.1423 	 1.073 	 94.894
0.5707050 	 20.6113122 	 7721.5793 	 1.070 	 94.841
0.5721905 	 20.8679342 	 10361.6767 	 1.067 	 94.917
0.5736598 	 21.1197693 	 13570.4054 	 1.065 	 94.900
0.5751134 	 21.3842970 	 17812.5768 	 1.062 	 94.896
0.5765537 	 21.6566526 	 23140.9962 	 1.057 	 94.882
0.5779780 	 21.9357464 	 29570.5378 	 1.054 	 94.898
0.5793858 	 22.2233347 	 36771.5884 	 1.050 	 94.894
0.5807778 	 22.5301816 	 45865.8886 	 1.047 	 94.914
0.5821531 	 22.8367436 	 55605.0077 	 1.043 	 94.886
0.5835116 	 23.1674053 	 66151.4812 	 1.039 	 94.912
0.5848528 	 23.5106132 	 75866.1613 	 1.035 	 94.894
0.5861773 	 23.8623474 	 85765.6251 	 1.033 	 94.911
0.5874838 	 24.2278563 	 94787.9812 	 1.030 	 94.886
0.5887707 	 24.6113793 	 103650.7057 	 1.029 	 94.867
0.5900409 	 25.0135104 	 112131.3554 	 1.027 	 94.891
0.5912927 	 25.4171890 	 119742.9700 	 1.025 	 94.893
0.5925260 	 25.8280833 	 126229.2490 	 1.025 	 94.870
0.5937406 	 26.2586115 	 131195.0563 	 1.024 	 94.854
0.5949374 	 26.6978930 	 135416.7572 	 1.025 	 94.837
0.5961156 	 27.1506931 	 136011.6477 	 1.026 	 94.865
0.5972757 	 27.6131048 	 136408.8466 	 1.028 	 94.846
0.5984183 	 28.0699104 	 136747.4504 	 1.029 	 94.815
0.5995422 	 28.5527631 	 133490.8157 	 1.031 	 94.814
0.6006501 	 29.0253978 	 130518.9947 	 1.034 	 94.809
0.6017404 	 29.5165881 	 125682.8302 	 1.038 	 94.800
0.6028146 	 29.9907110 	 121144.7521 	 1.044 	 94.756
0.6038734 	 30.4919112 	 117665.0592 	 1.050 	 94.773
0.6049153 	 30.9982036 	 114784.4672 	 1.056 	 94.767
0.6059422 	 31.4974529 	 114107.8022 	 1.064 	 94.735
0.6069537 	 32.0059474 	 116223.8477 	 1.072 	 94.738
0.6079503 	 32.5413239 	 120083.3863 	 1.080 	 94.752
0.6089324 	 33.0606265 	 128132.6551 	 1.087 	 94.729
0.6098989 	 33.6021895 	 138002.1412 	 1.094 	 94.704
0.6108507 	 34.1554920 	 151467.5155 	 1.103 	 94.687
0.6117881 	 34.7141348 	 167437.1600 	 1.110 	 94.683
0.6127120 	 35.3078699 	 184855.0676 	 1.118 	 94.654
0.6136205 	 35.9092948 	 203799.5032 	 1.123 	 94.623
0.6145142 	 36.5333525 	 221794.9953 	 1.129 	 94.616
0.6153938 	 37.1838222 	 240493.1187 	 1.135 	 94.586
0.6162586 	 37.8576644 	 259792.9730 	 1.139 	 94.605
0.6171085 	 38.5250012 	 279227.8977 	 1.144 	 94.556
0.6179446 	 39.2317995 	 302799.0839 	 1.147 	 94.555
0.6187668 	 39.9523217 	 323711.7800 	 1.152 	 94.528
0.6195746 	 40.6848773 	 345486.9310 	 1.156 	 94.490
0.6203691 	 41.4304780 	 368587.6394 	 1.160 	 94.435
0.6211487 	 42.2206942 	 390836.7237 	 1.164 	 94.469
0.6219152 	 43.0069811 	 415717.5493 	 1.168 	 94.437
0.6226680 	 43.8311435 	 438755.3549 	 1.172 	 94.421
0.6234067 	 44.6420793 	 460780.2996 	 1.175 	 94.366
0.6241321 	 45.5106597 	 482342.5288 	 1.180 	 94.411
0.6248452 	 46.3701776 	 502557.8082 	 1.183 	 94.363
0.6255452 	 47.2734382 	 522857.3046 	 1.188 	 94.354
0.6262327 	 48.1725959 	 543625.4911 	 1.193 	 94.295
0.6269069 	 49.1076203 	 561092.0131 	 1.197 	 94.306
0.6275690 	 50.0681086 	 574614.3671 	 1.202 	 94.292
0.6282195 	 51.0502831 	 583775.2037 	 1.207 	 94.277
0.6288573 	 52.0341519 	 592736.1460 	 1.212 	 94.237
0.6294837 	 53.0555945 	 599764.8673 	 1.217 	 94.253
