N=100 	 R=1000000 	 s=1 	 Save [density, Z, rho_t, like/unlike, events per sweep]
0.0001340 	 1.0005063 	 1.1027 	 1.001 	 10.123
0.0132515 	 1.1626073 	 12.2545 	 0.951 	 46.815
0.0260799 	 1.1528198 	 23.0930 	 1.004 	 78.927
0.0385167 	 1.1919140 	 33.6332 	 1.014 	 88.228
0.0505314 	 1.2395850 	 44.0201 	 1.016 	 92.012
0.0621851 	 1.2923100 	 54.6331 	 1.018 	 93.823
0.0734883 	 1.3483746 	 65.5481 	 1.019 	 94.785
0.0844518 	 1.4076950 	 76.1130 	 1.020 	 95.270
0.0950942 	 1.4698264 	 86.7533 	 1.021 	 95.510
0.1054240 	 1.5338257 	 96.9213 	 1.022 	 95.657
0.1154742 	 1.6003538 	 107.3581 	 1.024 	 95.749
0.1252326 	 1.6685746 	 118.1968 	 1.025 	 95.782
0.1347309 	 1.7386928 	 128.3770 	 1.026 	 95.807
0.1439752 	 1.8101720 	 139.2384 	 1.027 	 95.838
0.1529715 	 1.8841958 	 148.8615 	 1.028 	 95.844
0.1617233 	 1.9599937 	 159.7586 	 1.030 	 95.847
0.1702525 	 2.0372774 	 170.3600 	 1.031 	 95.825
0.1785661 	 2.1160212 	 180.8125 	 1.032 	 95.808
0.1866653 	 2.1966586 	 190.9802 	 1.033 	 95.769
0.1945736 	 2.2785304 	 202.0651 	 1.035 	 95.747
0.2022829 	 2.3624752 	 212.3608 	 1.036 	 95.751
0.2098138 	 2.4473047 	 221.8113 	 1.037 	 95.697
0.2171562 	 2.5343598 	 232.6658 	 1.038 	 95.684
0.2243323 	 2.6228179 	 243.1131 	 1.040 	 95.670
0.2313455 	 2.7133247 	 251.4659 	 1.040 	 95.669
0.2381920 	 2.8044391 	 262.2404 	 1.043 	 95.644
0.2448877 	 2.8976724 	 271.9216 	 1.043 	 95.647
0.2514325 	 2.9931116 	 280.9707 	 1.045 	 95.633
0.2578375 	 3.0888339 	 293.0783 	 1.045 	 95.611
0.2641026 	 3.1866552 	 304.6202 	 1.047 	 95.609
0.2702340 	 3.2861662 	 314.1118 	 1.048 	 95.586
0.2762351 	 3.3865787 	 327.8619 	 1.049 	 95.568
0.2821151 	 3.4898326 	 338.2750 	 1.050 	 95.597
0.2878646 	 3.5928437 	 348.1995 	 1.051 	 95.528
0.2935012 	 3.6991250 	 357.0604 	 1.052 	 95.541
0.2990242 	 3.8053555 	 369.5372 	 1.053 	 95.519
0.3044426 	 3.9137605 	 382.5554 	 1.053 	 95.494
0.3097460 	 4.0237555 	 391.2034 	 1.055 	 95.491
0.3149470 	 4.1353528 	 400.9713 	 1.056 	 95.493
0.3200469 	 4.2472394 	 413.3212 	 1.057 	 95.426
0.3250551 	 4.3622737 	 423.4909 	 1.058 	 95.450
0.3299655 	 4.4780302 	 433.4265 	 1.059 	 95.437
0.3347864 	 4.5952602 	 445.3364 	 1.060 	 95.396
0.3395166 	 4.7143312 	 458.6660 	 1.060 	 95.417
0.3441584 	 4.8352641 	 466.4778 	 1.061 	 95.412
0.3487255 	 4.9562794 	 476.3731 	 1.062 	 95.398
0.3532082 	 5.0793301 	 485.5245 	 1.063 	 95.386
0.3576087 	 5.2052597 	 498.6805 	 1.064 	 95.397
0.3619315 	 5.3298715 	 511.2166 	 1.065 	 95.375
0.3661832 	 5.4578831 	 522.7684 	 1.066 	 95.357
0.3703616 	 5.5873652 	 530.9083 	 1.067 	 95.342
0.3744691 	 5.7175929 	 540.2706 	 1.067 	 95.354
0.3785076 	 5.8512722 	 551.5495 	 1.068 	 95.354
0.3824781 	 5.9829792 	 560.3352 	 1.069 	 95.315
0.3863819 	 6.1183102 	 571.7483 	 1.070 	 95.338
0.3902218 	 6.2527871 	 581.7581 	 1.071 	 95.287
0.3939993 	 6.3907605 	 595.8509 	 1.072 	 95.315
0.3977170 	 6.5291629 	 606.8980 	 1.072 	 95.263
0.4013782 	 6.6695319 	 624.2038 	 1.072 	 95.257
0.4049800 	 6.8127854 	 630.3293 	 1.073 	 95.279
0.4085286 	 6.9540374 	 639.0994 	 1.073 	 95.255
0.4120213 	 7.1005730 	 649.9019 	 1.074 	 95.231
0.4154621 	 7.2457241 	 668.3071 	 1.075 	 95.231
0.4188453 	 7.3949167 	 681.5720 	 1.076 	 95.265
0.4221790 	 7.5414450 	 690.8512 	 1.077 	 95.204
0.4254617 	 7.6910206 	 699.5355 	 1.076 	 95.209
0.4286981 	 7.8430149 	 708.2931 	 1.077 	 95.216
0.4318891 	 7.9952808 	 719.8152 	 1.078 	 95.176
0.4350318 	 8.1520236 	 729.7123 	 1.078 	 95.212
0.4381287 	 8.3081812 	 737.9992 	 1.079 	 95.188
0.4411821 	 8.4623751 	 747.3581 	 1.079 	 95.188
0.4441927 	 8.6201871 	 760.9024 	 1.079 	 95.181
0.4471598 	 8.7799450 	 774.3852 	 1.080 	 95.140
0.4500873 	 8.9388803 	 782.6168 	 1.080 	 95.147
0.4529766 	 9.1044923 	 798.1367 	 1.080 	 95.154
0.4558247 	 9.2675262 	 803.1758 	 1.082 	 95.136
0.4586327 	 9.4320877 	 799.4474 	 1.082 	 95.158
0.4614031 	 9.5984213 	 815.7627 	 1.083 	 95.126
0.4641368 	 9.7668955 	 828.6434 	 1.083 	 95.115
0.4668349 	 9.9392995 	 842.0996 	 1.084 	 95.150
0.4694956 	 10.1068149 	 850.2669 	 1.084 	 95.117
0.4721219 	 10.2811850 	 857.6478 	 1.085 	 95.137
0.4747163 	 10.4508196 	 878.7856 	 1.085 	 95.111
0.4772757 	 10.6251593 	 887.1816 	 1.084 	 95.105
0.4798020 	 10.8035247 	 893.5079 	 1.086 	 95.111
0.4822942 	 10.9779070 	 897.3979 	 1.085 	 95.048
0.4847577 	 11.1573088 	 909.0428 	 1.086 	 95.065
0.4871898 	 11.3350227 	 920.0446 	 1.086 	 95.079
0.4895925 	 11.5175386 	 931.4139 	 1.087 	 95.067
0.4919658 	 11.7003973 	 941.9161 	 1.088 	 95.063
0.4943101 	 11.8831952 	 955.6024 	 1.087 	 95.057
0.4966265 	 12.0712260 	 967.1264 	 1.087 	 95.065
0.4989147 	 12.2554906 	 982.3272 	 1.087 	 95.020
0.5011741 	 12.4443486 	 988.0812 	 1.088 	 95.042
0.5034065 	 12.6313019 	 1006.2089 	 1.087 	 95.041
0.5056135 	 12.8244624 	 1020.2709 	 1.087 	 95.053
0.5077940 	 13.0173278 	 1029.3716 	 1.088 	 95.027
0.5099506 	 13.2073667 	 1039.9719 	 1.088 	 95.039
0.5120803 	 13.4061612 	 1047.3435 	 1.088 	 95.033
0.5141860 	 13.6055840 	 1060.8644 	 1.088 	 95.051
0.5162677 	 13.8014717 	 1082.5827 	 1.088 	 95.035
0.5183246 	 13.9983837 	 1099.5298 	 1.088 	 94.999
0.5203573 	 14.1991760 	 1095.4317 	 1.088 	 95.017
0.5223672 	 14.3955885 	 1103.8903 	 1.088 	 94.981
0.5243556 	 14.6046325 	 1115.2762 	 1.087 	 95.023
0.5263220 	 14.8098210 	 1129.5565 	 1.087 	 94.992
0.5282662 	 15.0133150 	 1147.3727 	 1.087 	 94.988
0.5301887 	 15.2237034 	 1157.1483 	 1.087 	 94.984
0.5320918 	 15.4306597 	 1165.5095 	 1.087 	 94.970
0.5339718 	 15.6382636 	 1181.9135 	 1.086 	 94.953
0.5358317 	 15.8580150 	 1192.3393 	 1.087 	 94.962
0.5376703 	 16.0721930 	 1200.7148 	 1.085 	 94.945
0.5394895 	 16.2827713 	 1208.5302 	 1.085 	 94.943
0.5412891 	 16.5023104 	 1230.9419 	 1.085 	 94.924
0.5430705 	 16.7243609 	 1255.4572 	 1.086 	 94.942
0.5448333 	 16.9433426 	 1273.2658 	 1.085 	 94.939
0.5465778 	 17.1668239 	 1298.7877 	 1.086 	 94.965
0.5483036 	 17.3882927 	 1319.5470 	 1.086 	 94.923
0.5500116 	 17.6147996 	 1350.7912 	 1.085 	 94.932
0.5517026 	 17.8381563 	 1383.8820 	 1.085 	 94.904
0.5533762 	 18.0694191 	 1420.4265 	 1.085 	 94.932
0.5550305 	 18.2966161 	 1464.9032 	 1.086 	 94.894
0.5566678 	 18.5299420 	 1526.3167 	 1.086 	 94.902
0.5582881 	 18.7651989 	 1607.7999 	 1.086 	 94.937
0.5598923 	 18.9978070 	 1695.7171 	 1.087 	 94.912
0.5614796 	 19.2283938 	 1828.6771 	 1.086 	 94.926
0.5630520 	 19.4695013 	 1990.3745 	 1.087 	 94.905
0.5646075 	 19.7038388 	 2220.3923 	 1.086 	 94.884
0.5661475 	 19.9424714 	 2528.3070 	 1.088 	 94.879
0.5676728 	 20.1896906 	 2976.2920 	 1.088 	 94.898
0.5691813 	 20.4351378 	 3556.6408 	 1.088 	 94.870
0.5706757 	 20.6807599 	 4405.1047 	 1.088 	 94.864
0.5721549 	 20.9409124 	 5353.6262 	 1.089 	 94.859
0.5736182 	 21.1982243 	 6675.1434 	 1.089 	 94.888
0.5750677 	 21.4594650 	 8524.0859 	 1.089 	 94.855
0.5765014 	 21.7313286 	 10841.3785 	 1.089 	 94.869
0.5779193 	 22.0018231 	 13984.8251 	 1.090 	 94.884
0.5793221 	 22.2759692 	 17896.6837 	 1.090 	 94.880
0.5807122 	 22.5581686 	 23087.2411 	 1.091 	 94.886
0.5820870 	 22.8392412 	 30452.1200 	 1.092 	 94.898
0.5834474 	 23.1280818 	 40055.8009 	 1.093 	 94.898
0.5847918 	 23.4245191 	 51846.3061 	 1.094 	 94.908
0.5861219 	 23.7318811 	 66397.8690 	 1.095 	 94.951
0.5874364 	 24.0535495 	 83602.9060 	 1.098 	 94.982
0.5887352 	 24.3707740 	 104538.1759 	 1.098 	 94.989
0.5900194 	 24.7106966 	 128788.3016 	 1.100 	 95.029
0.5912889 	 25.0555977 	 156049.5482 	 1.102 	 95.066
0.5925409 	 25.4183160 	 187258.6167 	 1.104 	 95.073
0.5937785 	 25.8002716 	 220020.8826 	 1.105 	 95.121
0.5949975 	 26.1813120 	 254903.5954 	 1.106 	 95.117
0.5962014 	 26.5898846 	 293308.6447 	 1.107 	 95.159
0.5973882 	 27.0119968 	 331169.7490 	 1.109 	 95.187
0.5985572 	 27.4423711 	 372766.0666 	 1.110 	 95.181
0.5997098 	 27.8978086 	 414583.4582 	 1.112 	 95.190
0.6008447 	 28.3589242 	 459354.3985 	 1.112 	 95.206
0.6019622 	 28.8365273 	 501016.6675 	 1.113 	 95.198
0.6030623 	 29.3255670 	 542903.9819 	 1.114 	 95.195
0.6041455 	 29.8258804 	 582951.0388 	 1.114 	 95.212
0.6052111 	 30.3635352 	 623726.3792 	 1.116 	 95.242
0.6062597 	 30.8947398 	 663904.8590 	 1.117 	 95.237
0.6072912 	 31.4546691 	 700537.8645 	 1.118 	 95.257
0.6083060 	 32.0108595 	 735835.5069 	 1.120 	 95.202
0.6093037 	 32.5989275 	 767128.9883 	 1.121 	 95.208
0.6102839 	 33.2068168 	 796066.6414 	 1.122 	 95.221
0.6112472 	 33.8256869 	 822961.9027 	 1.124 	 95.235
0.6121939 	 34.4500708 	 847864.4325 	 1.125 	 95.210
0.6131245 	 35.0981518 	 870776.4761 	 1.126 	 95.201
0.6140384 	 35.7667712 	 889234.6473 	 1.127 	 95.192
0.6149365 	 36.4656806 	 901228.5608 	 1.128 	 95.184
0.6158176 	 37.1639820 	 913864.5615 	 1.129 	 95.182
0.6166832 	 37.8837763 	 922263.0605 	 1.130 	 95.198
0.6175329 	 38.6193128 	 932537.4104 	 1.132 	 95.196
0.6183669 	 39.3677083 	 941364.4160 	 1.133 	 95.145
0.6191859 	 40.1409722 	 947041.1071 	 1.134 	 95.146
0.6199901 	 40.9227599 	 954005.2641 	 1.134 	 95.136
0.6207790 	 41.7455325 	 960260.9659 	 1.136 	 95.135
0.6215529 	 42.5722631 	 964024.8077 	 1.136 	 95.119
0.6223130 	 43.4061252 	 968438.0500 	 1.136 	 95.135
0.6230586 	 44.2725323 	 969748.4747 	 1.138 	 95.109
0.6237898 	 45.1537453 	 971853.0157 	 1.139 	 95.100
0.6245075 	 46.0551222 	 973814.7287 	 1.140 	 95.088
0.6252115 	 46.9883838 	 975469.5723 	 1.140 	 95.123
0.6259024 	 47.9084736 	 976811.2606 	 1.141 	 95.078
0.6265807 	 48.8735246 	 977876.4077 	 1.142 	 95.060
0.6272460 	 49.8468604 	 977886.2774 	 1.143 	 95.048
0.6278982 	 50.8534381 	 977964.5397 	 1.143 	 95.075
0.6285379 	 51.8578206 	 977083.3897 	 1.144 	 95.090
0.6291655 	 52.9067491 	 975899.7783 	 1.145 	 95.093
0.6297816 	 53.9413553 	 974904.8745 	 1.145 	 95.069
