N=100 	 R=1000000 	 s=1 	 Save [density, Z, rho_t, like/unlike, events per sweep]
0.0001334 	 1.0005073 	 1.1026 	 1.014 	 10.123
0.0132700 	 1.1625067 	 12.1851 	 0.950 	 46.858
0.0260965 	 1.1527953 	 22.9724 	 1.004 	 78.936
0.0385205 	 1.1919252 	 33.6676 	 1.013 	 88.259
0.0505354 	 1.2396792 	 44.2756 	 1.016 	 92.022
0.0621918 	 1.2922079 	 54.4275 	 1.018 	 93.789
0.0734913 	 1.3483356 	 64.9350 	 1.018 	 94.767
0.0844495 	 1.4077640 	 76.2412 	 1.020 	 95.242
0.0950832 	 1.4696122 	 86.8668 	 1.021 	 95.515
0.1054221 	 1.5338339 	 97.2869 	 1.022 	 95.672
0.1154657 	 1.6002090 	 108.6698 	 1.023 	 95.741
0.1252300 	 1.6686127 	 118.2983 	 1.025 	 95.789
0.1347277 	 1.7388514 	 128.0987 	 1.027 	 95.805
0.1439651 	 1.8099084 	 138.4905 	 1.027 	 95.833
0.1529550 	 1.8841642 	 148.0740 	 1.028 	 95.824
0.1617074 	 1.9596594 	 159.3742 	 1.030 	 95.821
0.1702398 	 2.0370176 	 169.0774 	 1.031 	 95.802
0.1785494 	 2.1156968 	 178.9272 	 1.032 	 95.789
0.1866568 	 2.1963594 	 190.6557 	 1.033 	 95.768
0.1945616 	 2.2790197 	 202.9448 	 1.035 	 95.755
0.2022750 	 2.3617533 	 213.2831 	 1.036 	 95.700
0.2097967 	 2.4475119 	 224.2833 	 1.037 	 95.725
0.2171409 	 2.5345143 	 232.9130 	 1.038 	 95.709
0.2243112 	 2.6226247 	 242.6266 	 1.040 	 95.694
0.2313207 	 2.7130202 	 253.4775 	 1.041 	 95.693
0.2381699 	 2.8045040 	 261.9303 	 1.042 	 95.661
0.2448674 	 2.8973934 	 272.6102 	 1.043 	 95.650
0.2514132 	 2.9925118 	 283.2793 	 1.044 	 95.624
0.2578146 	 3.0883960 	 290.6555 	 1.046 	 95.628
0.2640825 	 3.1861578 	 301.9448 	 1.046 	 95.590
0.2702125 	 3.2855195 	 311.3068 	 1.048 	 95.577
0.2762192 	 3.3865733 	 319.6841 	 1.049 	 95.586
0.2820936 	 3.4888117 	 328.4889 	 1.050 	 95.560
0.2878463 	 3.5931396 	 340.3535 	 1.051 	 95.550
0.2934816 	 3.6975427 	 348.6893 	 1.052 	 95.517
0.2990092 	 3.8050294 	 360.9725 	 1.054 	 95.492
0.3044255 	 3.9136281 	 373.5966 	 1.054 	 95.524
0.3097344 	 4.0242456 	 383.0621 	 1.055 	 95.502
0.3149394 	 4.1352108 	 391.5418 	 1.056 	 95.474
0.3200416 	 4.2481950 	 398.2114 	 1.057 	 95.467
0.3250464 	 4.3624162 	 407.7558 	 1.058 	 95.448
0.3299582 	 4.4785938 	 418.2564 	 1.059 	 95.439
0.3347740 	 4.5944343 	 428.3885 	 1.059 	 95.413
0.3395080 	 4.7148174 	 436.6953 	 1.061 	 95.437
0.3441513 	 4.8352013 	 448.4016 	 1.062 	 95.429
0.3487183 	 4.9562321 	 459.5629 	 1.062 	 95.384
0.3531994 	 5.0801459 	 468.0856 	 1.063 	 95.383
0.3576012 	 5.2051376 	 479.8476 	 1.064 	 95.370
0.3619287 	 5.3317749 	 489.0517 	 1.064 	 95.376
0.3661754 	 5.4586566 	 495.3378 	 1.066 	 95.371
0.3703508 	 5.5868579 	 502.0682 	 1.067 	 95.355
0.3744570 	 5.7175516 	 513.7437 	 1.068 	 95.326
0.3784914 	 5.8494171 	 526.5468 	 1.068 	 95.349
0.3824629 	 5.9824511 	 537.4633 	 1.069 	 95.314
0.3863683 	 6.1184650 	 549.0352 	 1.070 	 95.324
0.3902135 	 6.2529553 	 562.8455 	 1.070 	 95.296
0.3939941 	 6.3907788 	 579.3996 	 1.071 	 95.281
0.3977142 	 6.5296440 	 595.5157 	 1.072 	 95.269
0.4013736 	 6.6696471 	 604.8815 	 1.072 	 95.278
0.4049757 	 6.8137300 	 613.9703 	 1.073 	 95.287
0.4085226 	 6.9539702 	 624.8517 	 1.074 	 95.230
0.4120157 	 7.0999105 	 634.5899 	 1.075 	 95.248
0.4154540 	 7.2461616 	 645.9576 	 1.075 	 95.221
0.4188373 	 7.3937917 	 658.9125 	 1.075 	 95.250
0.4221699 	 7.5427233 	 670.8915 	 1.076 	 95.237
0.4254561 	 7.6902147 	 680.9093 	 1.076 	 95.223
0.4286928 	 7.8440526 	 692.1742 	 1.077 	 95.194
0.4318798 	 7.9957620 	 703.4302 	 1.077 	 95.183
0.4350233 	 8.1508878 	 709.6541 	 1.078 	 95.214
0.4381205 	 8.3060037 	 719.5490 	 1.079 	 95.185
0.4411732 	 8.4627562 	 733.7571 	 1.079 	 95.174
0.4441842 	 8.6172754 	 741.2684 	 1.080 	 95.136
0.4471541 	 8.7797941 	 750.1993 	 1.080 	 95.161
0.4500830 	 8.9407962 	 755.6246 	 1.080 	 95.164
0.4529696 	 9.1051406 	 764.1075 	 1.081 	 95.140
0.4558187 	 9.2654060 	 768.7830 	 1.082 	 95.143
0.4586276 	 9.4353202 	 785.1717 	 1.082 	 95.142
0.4613982 	 9.5978408 	 797.6847 	 1.082 	 95.118
0.4641318 	 9.7649664 	 802.5015 	 1.083 	 95.141
0.4668276 	 9.9349441 	 815.6079 	 1.083 	 95.131
0.4694893 	 10.1070741 	 834.1757 	 1.084 	 95.135
0.4721173 	 10.2771622 	 844.3456 	 1.084 	 95.111
0.4747087 	 10.4517239 	 853.9887 	 1.083 	 95.096
0.4772691 	 10.6251839 	 858.9486 	 1.084 	 95.108
0.4797949 	 10.8006617 	 875.0860 	 1.084 	 95.053
0.4822898 	 10.9818676 	 891.4491 	 1.084 	 95.123
0.4847552 	 11.1583244 	 905.4816 	 1.084 	 95.087
0.4871881 	 11.3342250 	 918.5403 	 1.084 	 95.060
0.4895902 	 11.5200431 	 931.3722 	 1.085 	 95.089
0.4919623 	 11.6992247 	 943.8539 	 1.085 	 95.070
0.4943055 	 11.8842367 	 961.1913 	 1.086 	 95.066
0.4966210 	 12.0686074 	 966.4395 	 1.087 	 95.047
0.4989090 	 12.2537118 	 978.0242 	 1.086 	 95.039
0.5011700 	 12.4455087 	 997.0787 	 1.086 	 95.053
0.5034021 	 12.6323898 	 1003.4450 	 1.086 	 95.030
0.5056098 	 12.8238511 	 1006.8833 	 1.087 	 95.004
0.5077912 	 13.0155341 	 1014.2886 	 1.086 	 95.037
0.5099447 	 13.2148193 	 1021.0148 	 1.086 	 95.055
0.5120733 	 13.4040846 	 1030.7281 	 1.086 	 94.976
0.5141759 	 13.6038797 	 1039.7990 	 1.086 	 95.038
0.5162578 	 13.8015721 	 1047.8432 	 1.087 	 95.017
0.5183134 	 13.9992077 	 1061.9787 	 1.087 	 94.998
0.5203484 	 14.1995503 	 1075.6145 	 1.087 	 95.030
0.5223593 	 14.3997351 	 1088.6701 	 1.087 	 94.976
0.5243471 	 14.6007717 	 1100.0475 	 1.088 	 94.974
0.5263134 	 14.8117645 	 1112.8813 	 1.088 	 94.998
0.5282573 	 15.0174973 	 1124.3526 	 1.088 	 94.987
0.5301798 	 15.2207069 	 1129.9164 	 1.088 	 94.950
0.5320817 	 15.4312819 	 1141.9616 	 1.088 	 94.987
0.5339624 	 15.6457383 	 1155.0246 	 1.088 	 94.960
0.5358224 	 15.8569325 	 1166.5573 	 1.088 	 94.959
0.5376629 	 16.0734514 	 1177.3382 	 1.088 	 94.964
0.5394835 	 16.2839247 	 1180.9611 	 1.087 	 94.945
0.5412838 	 16.5020454 	 1193.3234 	 1.087 	 94.949
0.5430648 	 16.7224836 	 1208.0426 	 1.087 	 94.948
0.5448275 	 16.9430322 	 1235.2569 	 1.087 	 94.941
0.5465704 	 17.1650650 	 1258.3774 	 1.086 	 94.933
0.5482975 	 17.3792858 	 1279.6734 	 1.087 	 94.902
0.5500056 	 17.6012423 	 1316.9499 	 1.086 	 94.933
0.5516961 	 17.8259227 	 1355.1109 	 1.087 	 94.930
0.5533687 	 18.0528329 	 1397.2679 	 1.086 	 94.923
0.5550245 	 18.2874255 	 1446.9252 	 1.086 	 94.919
0.5566641 	 18.5187139 	 1530.7667 	 1.086 	 94.913
0.5582855 	 18.7494865 	 1650.0872 	 1.084 	 94.920
0.5598912 	 18.9780967 	 1825.5852 	 1.084 	 94.879
0.5614814 	 19.2103976 	 2021.4770 	 1.083 	 94.884
0.5630555 	 19.4476975 	 2341.5624 	 1.083 	 94.877
0.5646130 	 19.6802671 	 2776.1001 	 1.083 	 94.843
0.5661546 	 19.9267103 	 3370.1411 	 1.082 	 94.884
0.5676817 	 20.1703166 	 4208.6778 	 1.081 	 94.864
0.5691925 	 20.4111700 	 5446.9649 	 1.080 	 94.838
0.5706896 	 20.6612968 	 7096.3561 	 1.079 	 94.844
0.5721717 	 20.9199001 	 9249.4359 	 1.078 	 94.847
0.5736364 	 21.1790201 	 12122.0661 	 1.078 	 94.808
0.5750878 	 21.4499348 	 15714.8859 	 1.078 	 94.849
0.5765245 	 21.7296569 	 20140.9307 	 1.077 	 94.798
0.5779433 	 22.0160964 	 25620.6973 	 1.076 	 94.812
0.5793466 	 22.3161825 	 31856.2214 	 1.074 	 94.856
0.5807331 	 22.6108902 	 38998.9943 	 1.073 	 94.798
0.5821025 	 22.9295164 	 47423.6002 	 1.073 	 94.800
0.5834561 	 23.2636158 	 56977.0740 	 1.073 	 94.823
0.5847914 	 23.6076628 	 67193.7987 	 1.072 	 94.808
0.5861098 	 23.9573309 	 77858.1156 	 1.071 	 94.805
0.5874097 	 24.3236722 	 91153.6812 	 1.071 	 94.859
0.5886923 	 24.7039053 	 104073.1513 	 1.070 	 94.844
0.5899566 	 25.0916055 	 118672.2670 	 1.070 	 94.864
0.5912043 	 25.4898199 	 131888.2462 	 1.069 	 94.878
0.5924333 	 25.9093716 	 147289.7352 	 1.069 	 94.865
0.5936437 	 26.3331002 	 163804.6461 	 1.068 	 94.863
0.5948371 	 26.7791296 	 179213.4337 	 1.067 	 94.879
0.5960121 	 27.2315254 	 196441.5211 	 1.066 	 94.923
0.5971689 	 27.6885714 	 213218.7545 	 1.065 	 94.897
0.5983079 	 28.1631665 	 227659.7541 	 1.064 	 94.880
0.5994292 	 28.6606821 	 244643.7785 	 1.064 	 94.921
0.6005331 	 29.1531177 	 257424.6627 	 1.063 	 94.878
0.6016178 	 29.6791041 	 271041.6468 	 1.062 	 94.929
0.6026850 	 30.2058080 	 283473.2476 	 1.060 	 94.940
0.6037355 	 30.7526285 	 291742.5306 	 1.060 	 94.942
0.6047678 	 31.3041006 	 297455.3956 	 1.059 	 94.953
0.6057831 	 31.8743394 	 303984.5867 	 1.058 	 94.980
0.6067819 	 32.4428732 	 303657.0934 	 1.057 	 94.931
0.6077629 	 33.0303968 	 306379.7941 	 1.056 	 94.970
0.6087278 	 33.6235224 	 305584.0877 	 1.055 	 94.952
0.6096769 	 34.2370117 	 303672.5357 	 1.054 	 94.979
0.6106104 	 34.8680001 	 296003.8755 	 1.054 	 94.989
0.6115274 	 35.4883737 	 285510.0992 	 1.052 	 95.000
0.6124290 	 36.1199247 	 272826.4719 	 1.051 	 94.973
0.6133163 	 36.7461074 	 256363.3233 	 1.050 	 95.012
0.6141891 	 37.3865986 	 239989.1009 	 1.049 	 95.004
0.6150481 	 38.0115502 	 220227.1235 	 1.049 	 95.016
0.6158934 	 38.6444532 	 202069.4489 	 1.050 	 95.037
0.6167265 	 39.2588659 	 183718.0878 	 1.051 	 95.003
0.6175473 	 39.8690439 	 165558.4034 	 1.054 	 95.034
0.6183564 	 40.4423142 	 152920.8910 	 1.058 	 95.033
0.6191555 	 41.0054716 	 148880.3895 	 1.064 	 95.046
0.6199448 	 41.5130648 	 159187.2210 	 1.071 	 94.981
0.6207247 	 42.0261640 	 184857.0160 	 1.081 	 94.969
0.6214962 	 42.5519673 	 225824.0028 	 1.091 	 94.966
0.6222588 	 43.1169977 	 281263.8211 	 1.104 	 94.976
0.6230119 	 43.6959391 	 349507.1064 	 1.115 	 94.958
0.6237551 	 44.3403597 	 418324.3202 	 1.127 	 94.922
0.6244883 	 45.0023259 	 489901.8017 	 1.138 	 94.870
0.6252108 	 45.7432147 	 553909.8346 	 1.149 	 94.848
0.6259215 	 46.5351945 	 616383.0970 	 1.159 	 94.849
0.6266208 	 47.3560027 	 671152.7656 	 1.167 	 94.796
0.6273088 	 48.2389012 	 713561.5859 	 1.175 	 94.784
0.6279841 	 49.1669880 	 749228.5857 	 1.181 	 94.762
0.6286463 	 50.1196259 	 778567.2874 	 1.187 	 94.710
0.6292961 	 51.1253203 	 804331.4537 	 1.193 	 94.749
0.6299348 	 52.1237007 	 827716.0695 	 1.198 	 94.657
