N=100 	 R=1000000 	 s=1 	 Save [density, Z, rho_t, like/unlike, events per sweep]
0.0001349 	 1.0005135 	 1.1027 	 1.003 	 10.125
0.0132546 	 1.1626908 	 12.1642 	 0.950 	 46.792
0.0260827 	 1.1528416 	 22.8036 	 1.004 	 78.922
0.0384976 	 1.1918481 	 33.4100 	 1.013 	 88.258
0.0505142 	 1.2395586 	 43.7655 	 1.016 	 92.007
0.0621665 	 1.2922132 	 54.2155 	 1.017 	 93.805
0.0734674 	 1.3482308 	 64.5771 	 1.020 	 94.769
0.0844290 	 1.4076729 	 74.4257 	 1.020 	 95.246
0.0950653 	 1.4694948 	 84.9380 	 1.021 	 95.491
0.1054036 	 1.5338575 	 95.0781 	 1.022 	 95.676
0.1154500 	 1.6000862 	 104.3568 	 1.023 	 95.735
0.1252176 	 1.6685583 	 114.1106 	 1.025 	 95.816
0.1347090 	 1.7385853 	 124.4190 	 1.027 	 95.785
0.1439456 	 1.8100484 	 134.7253 	 1.027 	 95.860
0.1529336 	 1.8838414 	 144.5584 	 1.029 	 95.818
0.1616857 	 1.9597912 	 155.0669 	 1.030 	 95.846
0.1702205 	 2.0367788 	 167.2849 	 1.031 	 95.797
0.1785301 	 2.1157685 	 177.4609 	 1.032 	 95.796
0.1866329 	 2.1962086 	 188.5222 	 1.034 	 95.758
0.1945398 	 2.2785425 	 199.8222 	 1.035 	 95.769
0.2022497 	 2.3617447 	 208.9708 	 1.036 	 95.723
0.2097720 	 2.4474342 	 219.6217 	 1.038 	 95.725
0.2171236 	 2.5344086 	 227.3012 	 1.038 	 95.705
0.2242985 	 2.6225766 	 238.5067 	 1.040 	 95.714
0.2313111 	 2.7123905 	 247.0634 	 1.041 	 95.673
0.2381652 	 2.8042695 	 258.7039 	 1.042 	 95.658
0.2448620 	 2.8973633 	 268.9490 	 1.043 	 95.640
0.2514028 	 2.9920077 	 278.2057 	 1.044 	 95.631
0.2578066 	 3.0885711 	 287.3080 	 1.045 	 95.644
0.2640725 	 3.1867498 	 296.0069 	 1.046 	 95.629
0.2702003 	 3.2850136 	 306.1595 	 1.048 	 95.579
0.2762013 	 3.3861622 	 316.6943 	 1.049 	 95.551
0.2820756 	 3.4884738 	 325.2046 	 1.050 	 95.563
0.2878320 	 3.5930651 	 334.8882 	 1.051 	 95.560
0.2934720 	 3.6979460 	 347.7232 	 1.052 	 95.535
0.2989932 	 3.8048366 	 358.5062 	 1.053 	 95.506
0.3044052 	 3.9137352 	 368.5681 	 1.054 	 95.522
0.3097116 	 4.0237742 	 376.1284 	 1.055 	 95.516
0.3149173 	 4.1348230 	 387.5695 	 1.056 	 95.477
0.3200172 	 4.2467639 	 395.2018 	 1.057 	 95.462
0.3250279 	 4.3620475 	 403.0871 	 1.058 	 95.447
0.3299390 	 4.4777263 	 414.0048 	 1.059 	 95.445
0.3347588 	 4.5960853 	 421.0616 	 1.060 	 95.458
0.3394916 	 4.7139739 	 429.4556 	 1.060 	 95.434
0.3441382 	 4.8339465 	 438.5455 	 1.062 	 95.398
0.3487012 	 4.9555435 	 450.9063 	 1.062 	 95.385
0.3531823 	 5.0779433 	 461.3774 	 1.064 	 95.369
0.3575828 	 5.2030854 	 470.4103 	 1.064 	 95.373
0.3619090 	 5.3290448 	 486.0514 	 1.065 	 95.343
0.3661598 	 5.4585022 	 494.2547 	 1.066 	 95.384
0.3703405 	 5.5879554 	 506.9812 	 1.067 	 95.398
0.3744449 	 5.7167469 	 510.7117 	 1.067 	 95.324
0.3784844 	 5.8489886 	 520.3860 	 1.068 	 95.323
0.3824540 	 5.9827621 	 529.5384 	 1.068 	 95.312
0.3863591 	 6.1175918 	 537.4236 	 1.069 	 95.317
0.3902026 	 6.2527308 	 548.8442 	 1.070 	 95.291
0.3939810 	 6.3919255 	 559.8383 	 1.071 	 95.272
0.3977001 	 6.5292648 	 570.4192 	 1.072 	 95.283
0.4013629 	 6.6688501 	 580.5078 	 1.072 	 95.264
0.4049630 	 6.8102574 	 594.3978 	 1.073 	 95.233
0.4085080 	 6.9544913 	 603.2787 	 1.073 	 95.254
0.4120001 	 7.0998218 	 610.9320 	 1.074 	 95.216
0.4154384 	 7.2488039 	 621.0160 	 1.074 	 95.274
0.4188258 	 7.3920282 	 631.5258 	 1.076 	 95.226
0.4221643 	 7.5418539 	 644.4945 	 1.076 	 95.231
0.4254500 	 7.6938748 	 658.6418 	 1.077 	 95.255
0.4286866 	 7.8444873 	 665.3353 	 1.077 	 95.236
0.4318763 	 7.9946387 	 674.9485 	 1.077 	 95.198
0.4350204 	 8.1506336 	 681.6635 	 1.078 	 95.211
0.4381176 	 8.3068029 	 688.4211 	 1.079 	 95.201
0.4411711 	 8.4627580 	 698.5365 	 1.080 	 95.185
0.4441813 	 8.6215099 	 704.9752 	 1.080 	 95.179
0.4471487 	 8.7814019 	 715.5607 	 1.080 	 95.187
0.4500768 	 8.9417729 	 723.3139 	 1.081 	 95.166
0.4529615 	 9.1023510 	 740.4359 	 1.080 	 95.181
0.4558097 	 9.2683961 	 750.0655 	 1.081 	 95.157
0.4586187 	 9.4312790 	 759.6183 	 1.083 	 95.124
0.4613901 	 9.5981871 	 768.3076 	 1.082 	 95.140
0.4641224 	 9.7682097 	 777.0655 	 1.082 	 95.135
0.4668194 	 9.9364081 	 784.6965 	 1.084 	 95.122
0.4694810 	 10.1074289 	 787.9895 	 1.084 	 95.135
0.4721077 	 10.2768954 	 791.4288 	 1.084 	 95.100
0.4746974 	 10.4522501 	 799.9830 	 1.084 	 95.099
0.4772577 	 10.6258284 	 814.4374 	 1.084 	 95.122
0.4797854 	 10.8016671 	 822.6056 	 1.084 	 95.115
0.4822781 	 10.9807938 	 829.5467 	 1.084 	 95.094
0.4847417 	 11.1551113 	 844.3935 	 1.085 	 95.083
0.4871743 	 11.3364482 	 856.4712 	 1.085 	 95.084
0.4895791 	 11.5176156 	 858.1461 	 1.085 	 95.089
0.4919513 	 11.6998248 	 867.4532 	 1.085 	 95.067
0.4942958 	 11.8858038 	 878.8058 	 1.086 	 95.063
0.4966133 	 12.0675655 	 888.5318 	 1.086 	 95.045
0.4988998 	 12.2552521 	 906.6364 	 1.087 	 95.034
0.5011588 	 12.4408783 	 912.4298 	 1.086 	 95.046
0.5033942 	 12.6338629 	 927.6457 	 1.086 	 95.068
0.5055997 	 12.8217499 	 941.5155 	 1.086 	 95.038
0.5077805 	 13.0128283 	 959.5741 	 1.086 	 95.013
0.5099364 	 13.2063035 	 970.5031 	 1.086 	 94.986
0.5120671 	 13.4025442 	 979.6621 	 1.087 	 94.994
0.5141721 	 13.5977187 	 986.5271 	 1.087 	 95.001
0.5162533 	 13.7990882 	 1003.5477 	 1.087 	 95.010
0.5183108 	 13.9935970 	 1015.8736 	 1.087 	 95.001
0.5203439 	 14.1952087 	 1027.8525 	 1.087 	 94.969
0.5223543 	 14.3958067 	 1036.6211 	 1.087 	 95.001
0.5243426 	 14.5993570 	 1050.4596 	 1.088 	 94.989
0.5263084 	 14.8047268 	 1055.4095 	 1.087 	 94.990
0.5282512 	 15.0110589 	 1066.7634 	 1.087 	 94.975
0.5301745 	 15.2148804 	 1072.8568 	 1.087 	 94.949
0.5320784 	 15.4257534 	 1086.3992 	 1.087 	 94.947
0.5339587 	 15.6390741 	 1089.6055 	 1.087 	 94.960
0.5358201 	 15.8533937 	 1103.5126 	 1.088 	 94.966
0.5376608 	 16.0667410 	 1120.7215 	 1.088 	 94.950
0.5394805 	 16.2778298 	 1129.7285 	 1.087 	 94.944
0.5412827 	 16.4930716 	 1154.3545 	 1.087 	 94.939
0.5430641 	 16.7144571 	 1175.9305 	 1.088 	 94.952
0.5448284 	 16.9347260 	 1188.4779 	 1.087 	 94.904
0.5465726 	 17.1579520 	 1213.1061 	 1.087 	 94.949
0.5482978 	 17.3836649 	 1237.1406 	 1.087 	 94.922
0.5500061 	 17.6103014 	 1253.2704 	 1.087 	 94.933
0.5516973 	 17.8312586 	 1270.9386 	 1.086 	 94.921
0.5533704 	 18.0573707 	 1306.8001 	 1.085 	 94.898
0.5550271 	 18.2938853 	 1347.8937 	 1.086 	 94.919
0.5566649 	 18.5209490 	 1392.2689 	 1.085 	 94.873
0.5582859 	 18.7530638 	 1448.9832 	 1.085 	 94.894
0.5598915 	 18.9878886 	 1522.8068 	 1.085 	 94.906
0.5614797 	 19.2283819 	 1630.5404 	 1.084 	 94.897
0.5630519 	 19.4631797 	 1800.9113 	 1.083 	 94.860
0.5646080 	 19.7103414 	 2009.5705 	 1.082 	 94.880
0.5661477 	 19.9526684 	 2300.2562 	 1.082 	 94.898
0.5676712 	 20.1984396 	 2731.0333 	 1.081 	 94.852
0.5691805 	 20.4423599 	 3382.3702 	 1.080 	 94.851
0.5706737 	 20.6954616 	 4331.3990 	 1.079 	 94.878
0.5721530 	 20.9468968 	 5808.2480 	 1.077 	 94.895
0.5736154 	 21.1939767 	 8003.6834 	 1.076 	 94.845
0.5750646 	 21.4602605 	 10970.4939 	 1.076 	 94.847
0.5764990 	 21.7257596 	 15059.6025 	 1.075 	 94.865
0.5779188 	 21.9915403 	 20528.5494 	 1.074 	 94.859
0.5793229 	 22.2520573 	 28278.3085 	 1.072 	 94.846
0.5807134 	 22.5354040 	 38125.1503 	 1.071 	 94.853
0.5820892 	 22.8105478 	 50454.1933 	 1.069 	 94.850
0.5834510 	 23.1124098 	 64719.7959 	 1.069 	 94.871
0.5847968 	 23.4317360 	 81030.0558 	 1.068 	 94.874
0.5861248 	 23.7596703 	 98651.2232 	 1.068 	 94.862
0.5874368 	 24.1049066 	 117905.1146 	 1.069 	 94.871
0.5887324 	 24.4504643 	 139858.1555 	 1.069 	 94.849
0.5900103 	 24.8227123 	 162842.9620 	 1.069 	 94.867
0.5912718 	 25.2159581 	 185553.5743 	 1.070 	 94.879
0.5925155 	 25.6099622 	 210970.0694 	 1.071 	 94.867
0.5937420 	 26.0132798 	 236645.3655 	 1.072 	 94.838
0.5949507 	 26.4314064 	 265089.0374 	 1.073 	 94.823
0.5961401 	 26.8889062 	 293638.8999 	 1.075 	 94.875
0.5973123 	 27.3263576 	 328353.5741 	 1.076 	 94.885
0.5984672 	 27.7872255 	 362207.1342 	 1.077 	 94.871
0.5996040 	 28.2428406 	 401736.9124 	 1.079 	 94.870
0.6007245 	 28.7257312 	 441885.0073 	 1.079 	 94.880
0.6018271 	 29.2110554 	 484639.0003 	 1.080 	 94.895
0.6029121 	 29.7036607 	 527172.2666 	 1.080 	 94.871
0.6039802 	 30.2216201 	 567599.5998 	 1.081 	 94.892
0.6050327 	 30.7462153 	 612225.7183 	 1.081 	 94.883
0.6060674 	 31.2792864 	 652041.0332 	 1.082 	 94.908
0.6070856 	 31.8331208 	 687432.0273 	 1.082 	 94.904
0.6080875 	 32.3918907 	 723877.0934 	 1.082 	 94.887
0.6090725 	 32.9730040 	 756646.0407 	 1.082 	 94.867
0.6100405 	 33.5591942 	 785418.3078 	 1.083 	 94.860
0.6109929 	 34.1707731 	 808556.8863 	 1.082 	 94.870
0.6119299 	 34.7903131 	 825100.2901 	 1.083 	 94.852
0.6128509 	 35.4342113 	 840094.3165 	 1.083 	 94.836
0.6137560 	 36.0897472 	 850981.2424 	 1.083 	 94.828
0.6146456 	 36.7719252 	 861548.6902 	 1.083 	 94.826
0.6155188 	 37.4591754 	 868470.4158 	 1.084 	 94.811
0.6163770 	 38.1727743 	 874111.1698 	 1.084 	 94.803
0.6172197 	 38.8958610 	 877795.0005 	 1.085 	 94.806
0.6180478 	 39.6426037 	 882294.2880 	 1.086 	 94.813
0.6188609 	 40.3958393 	 883880.2953 	 1.086 	 94.771
0.6196594 	 41.1643226 	 884664.1772 	 1.087 	 94.759
0.6204437 	 41.9675715 	 888138.0557 	 1.087 	 94.753
0.6212135 	 42.7680388 	 885909.7124 	 1.087 	 94.746
0.6219694 	 43.5965892 	 887618.1424 	 1.089 	 94.734
0.6227119 	 44.4302067 	 884932.8067 	 1.089 	 94.715
0.6234404 	 45.2953886 	 882107.5547 	 1.090 	 94.690
0.6241558 	 46.1739886 	 876537.9211 	 1.091 	 94.718
0.6248583 	 47.0576707 	 870952.8563 	 1.092 	 94.677
0.6255472 	 47.9783951 	 865751.8219 	 1.093 	 94.706
0.6262240 	 48.8885488 	 856375.4040 	 1.094 	 94.689
0.6268886 	 49.8461817 	 843925.7210 	 1.096 	 94.666
0.6275411 	 50.7801274 	 827461.4684 	 1.097 	 94.646
0.6281820 	 51.7421985 	 810455.8257 	 1.099 	 94.631
0.6288114 	 52.7411541 	 790348.2545 	 1.101 	 94.647
0.6294293 	 53.7180878 	 759955.7174 	 1.103 	 94.654
