N=100 	 R=1000000 	 s=1 	 Save [density, Z, rho_t, like/unlike, events per sweep]
0.0001358 	 1.0005155 	 1.1027 	 1.003 	 10.125
0.0132515 	 1.1625360 	 12.1691 	 0.950 	 46.801
0.0260903 	 1.1528442 	 22.8526 	 1.004 	 78.890
0.0385147 	 1.1919160 	 33.2233 	 1.013 	 88.261
0.0505287 	 1.2396359 	 43.7524 	 1.016 	 92.044
0.0621786 	 1.2922584 	 54.2247 	 1.017 	 93.806
0.0734818 	 1.3482271 	 64.9241 	 1.019 	 94.740
0.0844366 	 1.4075730 	 75.6877 	 1.021 	 95.204
0.0950793 	 1.4695480 	 85.4943 	 1.022 	 95.514
0.1054025 	 1.5337216 	 95.6310 	 1.022 	 95.681
0.1154433 	 1.5999961 	 105.2927 	 1.023 	 95.755
0.1252165 	 1.6684300 	 115.3962 	 1.025 	 95.794
0.1347106 	 1.7386569 	 126.8111 	 1.026 	 95.825
0.1439468 	 1.8102852 	 137.1337 	 1.027 	 95.883
0.1529381 	 1.8839091 	 147.3002 	 1.028 	 95.840
0.1616952 	 1.9596068 	 157.6647 	 1.029 	 95.815
0.1702205 	 2.0369598 	 167.7487 	 1.032 	 95.800
0.1785376 	 2.1158720 	 178.6441 	 1.033 	 95.797
0.1866377 	 2.1960684 	 189.5636 	 1.034 	 95.773
0.1945440 	 2.2781147 	 201.2311 	 1.035 	 95.738
0.2022557 	 2.3622925 	 211.3031 	 1.036 	 95.749
0.2097850 	 2.4471867 	 220.9550 	 1.037 	 95.706
0.2171279 	 2.5341923 	 232.5735 	 1.038 	 95.701
0.2243058 	 2.6229237 	 242.8150 	 1.040 	 95.704
0.2313077 	 2.7126734 	 253.0728 	 1.041 	 95.685
0.2381605 	 2.8040520 	 264.8037 	 1.042 	 95.673
0.2448572 	 2.8973882 	 276.8485 	 1.044 	 95.669
0.2514028 	 2.9923518 	 285.2089 	 1.044 	 95.656
0.2578060 	 3.0879445 	 296.8997 	 1.045 	 95.589
0.2640698 	 3.1864950 	 308.3949 	 1.047 	 95.608
0.2702015 	 3.2860253 	 318.9568 	 1.048 	 95.615
0.2762016 	 3.3857616 	 328.4210 	 1.048 	 95.546
0.2820776 	 3.4887395 	 341.3037 	 1.050 	 95.563
0.2878306 	 3.5926488 	 350.7471 	 1.051 	 95.541
0.2934681 	 3.6980616 	 361.1913 	 1.052 	 95.537
0.2989934 	 3.8041145 	 373.8825 	 1.052 	 95.506
0.3044044 	 3.9132736 	 384.1155 	 1.054 	 95.487
0.3097121 	 4.0233506 	 396.3722 	 1.055 	 95.483
0.3149178 	 4.1351139 	 408.5995 	 1.056 	 95.491
0.3200254 	 4.2478708 	 417.4761 	 1.057 	 95.477
0.3250308 	 4.3616527 	 432.1527 	 1.058 	 95.457
0.3299418 	 4.4787679 	 443.0300 	 1.059 	 95.476
0.3347620 	 4.5941665 	 455.8219 	 1.059 	 95.412
0.3394922 	 4.7142859 	 466.5351 	 1.061 	 95.412
0.3441389 	 4.8340960 	 475.6406 	 1.062 	 95.407
0.3487004 	 4.9549361 	 482.0152 	 1.063 	 95.352
0.3531784 	 5.0791911 	 495.1578 	 1.063 	 95.404
0.3575808 	 5.2041689 	 505.3613 	 1.064 	 95.379
0.3619085 	 5.3287759 	 516.5041 	 1.065 	 95.339
0.3661585 	 5.4577884 	 529.7154 	 1.067 	 95.358
0.3703339 	 5.5867095 	 539.0535 	 1.067 	 95.363
0.3744457 	 5.7161037 	 551.1550 	 1.068 	 95.337
0.3784822 	 5.8488700 	 558.5412 	 1.068 	 95.307
0.3824521 	 5.9824331 	 578.5203 	 1.069 	 95.329
0.3863564 	 6.1164331 	 586.1570 	 1.070 	 95.312
0.3901995 	 6.2524387 	 594.8750 	 1.070 	 95.294
0.3939812 	 6.3902826 	 605.2581 	 1.071 	 95.289
0.3977016 	 6.5318437 	 611.4083 	 1.072 	 95.303
0.4013573 	 6.6692971 	 618.1888 	 1.072 	 95.240
0.4049590 	 6.8121623 	 624.8270 	 1.073 	 95.280
0.4085055 	 6.9557692 	 639.2321 	 1.074 	 95.264
0.4119969 	 7.0982918 	 649.9339 	 1.075 	 95.241
0.4154331 	 7.2456045 	 663.7920 	 1.075 	 95.253
0.4188224 	 7.3928215 	 675.2893 	 1.075 	 95.242
0.4221576 	 7.5407912 	 682.6905 	 1.076 	 95.206
0.4254435 	 7.6924050 	 693.3149 	 1.077 	 95.220
0.4286807 	 7.8436258 	 705.5563 	 1.077 	 95.231
0.4318699 	 7.9961252 	 716.8602 	 1.078 	 95.204
0.4350112 	 8.1496917 	 730.6733 	 1.078 	 95.192
0.4381072 	 8.3026221 	 742.7499 	 1.079 	 95.183
0.4411603 	 8.4620520 	 745.6728 	 1.079 	 95.194
0.4441733 	 8.6205757 	 759.6477 	 1.079 	 95.167
0.4471426 	 8.7810485 	 764.4786 	 1.079 	 95.194
0.4500693 	 8.9415567 	 773.7322 	 1.080 	 95.162
0.4529544 	 9.1026960 	 783.2743 	 1.081 	 95.168
0.4558037 	 9.2674334 	 790.3010 	 1.081 	 95.150
0.4586112 	 9.4337384 	 801.7729 	 1.082 	 95.165
0.4613829 	 9.6001894 	 815.1421 	 1.082 	 95.143
0.4641171 	 9.7631504 	 826.8507 	 1.082 	 95.090
0.4668147 	 9.9358242 	 829.4987 	 1.083 	 95.125
0.4694764 	 10.1076828 	 835.3879 	 1.082 	 95.128
0.4721049 	 10.2751981 	 854.8660 	 1.083 	 95.105
0.4746974 	 10.4508107 	 865.1355 	 1.084 	 95.100
0.4772595 	 10.6251854 	 876.0159 	 1.084 	 95.111
0.4797856 	 10.8029437 	 893.3164 	 1.085 	 95.089
0.4822799 	 10.9793356 	 907.6706 	 1.086 	 95.109
0.4847446 	 11.1570296 	 918.0727 	 1.086 	 95.083
0.4871777 	 11.3370368 	 929.5126 	 1.086 	 95.079
0.4895812 	 11.5173417 	 940.8346 	 1.086 	 95.078
0.4919539 	 11.6978026 	 946.2840 	 1.086 	 95.067
0.4942984 	 11.8857897 	 964.9318 	 1.085 	 95.083
0.4966131 	 12.0702173 	 982.9686 	 1.086 	 95.081
0.4988990 	 12.2530339 	 981.5879 	 1.087 	 95.036
0.5011578 	 12.4422202 	 987.3445 	 1.087 	 95.051
0.5033911 	 12.6335204 	 999.8138 	 1.086 	 95.041
0.5055985 	 12.8230583 	 1006.9490 	 1.086 	 95.036
0.5077770 	 13.0163717 	 1017.6253 	 1.087 	 95.047
0.5099318 	 13.2088755 	 1023.4146 	 1.087 	 95.037
0.5120626 	 13.4032265 	 1030.2691 	 1.086 	 95.027
0.5141682 	 13.5990508 	 1045.2162 	 1.086 	 95.007
0.5162506 	 13.7999902 	 1055.2800 	 1.087 	 95.014
0.5183087 	 13.9958216 	 1069.3900 	 1.087 	 94.983
0.5203428 	 14.2025701 	 1082.3784 	 1.087 	 95.006
0.5223529 	 14.4036452 	 1090.3964 	 1.087 	 95.015
0.5243415 	 14.6038942 	 1102.3817 	 1.087 	 95.005
0.5263069 	 14.8081618 	 1105.9375 	 1.087 	 94.953
0.5282523 	 15.0151136 	 1120.0880 	 1.087 	 94.970
0.5301747 	 15.2197769 	 1134.2766 	 1.087 	 94.979
0.5320765 	 15.4311409 	 1141.4095 	 1.087 	 94.993
0.5339558 	 15.6491346 	 1151.1482 	 1.087 	 94.990
0.5358161 	 15.8597088 	 1167.2752 	 1.087 	 94.973
0.5376562 	 16.0664182 	 1177.3256 	 1.087 	 94.953
0.5394774 	 16.2856911 	 1201.9201 	 1.087 	 94.971
0.5412786 	 16.5019128 	 1222.7036 	 1.087 	 94.936
0.5430604 	 16.7242364 	 1234.1356 	 1.087 	 94.948
0.5448224 	 16.9372533 	 1257.2803 	 1.086 	 94.937
0.5465656 	 17.1573374 	 1278.3546 	 1.087 	 94.903
0.5482916 	 17.3768130 	 1300.2734 	 1.087 	 94.928
0.5499999 	 17.6003593 	 1337.2179 	 1.086 	 94.934
0.5516902 	 17.8261824 	 1369.6734 	 1.086 	 94.905
0.5533621 	 18.0562472 	 1412.3982 	 1.086 	 94.933
0.5550174 	 18.2880104 	 1453.0387 	 1.086 	 94.918
0.5566558 	 18.5207761 	 1500.1470 	 1.086 	 94.951
0.5582774 	 18.7493840 	 1560.7959 	 1.087 	 94.896
0.5598807 	 18.9887608 	 1633.9256 	 1.086 	 94.898
0.5614695 	 19.2284121 	 1726.2413 	 1.086 	 94.888
0.5630413 	 19.4683387 	 1839.8980 	 1.087 	 94.895
0.5645976 	 19.7138928 	 1984.9207 	 1.086 	 94.892
0.5661395 	 19.9593209 	 2176.7421 	 1.086 	 94.869
0.5676620 	 20.2201363 	 2403.6983 	 1.086 	 94.891
0.5691678 	 20.4836654 	 2670.5748 	 1.086 	 94.886
0.5706586 	 20.7417409 	 3011.5360 	 1.085 	 94.881
0.5721336 	 20.9989329 	 3446.3816 	 1.086 	 94.859
0.5735937 	 21.2721695 	 3944.2965 	 1.086 	 94.852
0.5750379 	 21.5562205 	 4520.3098 	 1.087 	 94.858
0.5764651 	 21.8330296 	 5262.8207 	 1.087 	 94.860
0.5778762 	 22.1175115 	 6160.2335 	 1.088 	 94.847
0.5792704 	 22.4115312 	 7364.8170 	 1.089 	 94.853
0.5806494 	 22.7167234 	 8788.5985 	 1.090 	 94.864
0.5820122 	 23.0261145 	 10675.1787 	 1.091 	 94.848
0.5833600 	 23.3498679 	 12874.9716 	 1.093 	 94.865
0.5846909 	 23.6789992 	 15378.2666 	 1.094 	 94.854
0.5860046 	 24.0067971 	 18758.7060 	 1.096 	 94.833
0.5873033 	 24.3548948 	 22695.1617 	 1.098 	 94.855
0.5885850 	 24.7097418 	 27014.0502 	 1.100 	 94.847
0.5898496 	 25.0834513 	 32191.0658 	 1.103 	 94.867
0.5910977 	 25.4495105 	 38278.8385 	 1.106 	 94.854
0.5923299 	 25.8384181 	 45303.1112 	 1.109 	 94.850
0.5935457 	 26.2369905 	 52231.9416 	 1.111 	 94.857
0.5947441 	 26.6493152 	 60638.2361 	 1.114 	 94.896
0.5959254 	 27.0648322 	 69318.3823 	 1.118 	 94.880
0.5970902 	 27.4866568 	 76808.4082 	 1.121 	 94.843
0.5982377 	 27.9331801 	 85592.6525 	 1.123 	 94.879
0.5993689 	 28.3798960 	 94193.2211 	 1.125 	 94.889
0.6004831 	 28.8357841 	 102097.7901 	 1.128 	 94.898
0.6015808 	 29.3146152 	 110105.9675 	 1.131 	 94.902
0.6026622 	 29.8042801 	 115651.5399 	 1.132 	 94.935
0.6037268 	 30.2924704 	 122414.7954 	 1.133 	 94.921
0.6047748 	 30.8042346 	 128703.0822 	 1.134 	 94.949
0.6058069 	 31.3254535 	 131861.9298 	 1.134 	 94.933
0.6068239 	 31.8648349 	 135315.7937 	 1.134 	 94.943
0.6078242 	 32.4133817 	 137326.4731 	 1.132 	 94.941
0.6088095 	 32.9741949 	 137688.3569 	 1.130 	 94.980
0.6097791 	 33.5511689 	 138068.0339 	 1.128 	 94.957
0.6107333 	 34.1266272 	 138604.4520 	 1.125 	 94.978
0.6116715 	 34.7165259 	 139138.1576 	 1.122 	 94.963
0.6125949 	 35.3256375 	 141548.0602 	 1.116 	 94.977
0.6135036 	 35.9186605 	 145170.1828 	 1.111 	 94.944
0.6143977 	 36.5284874 	 151691.0120 	 1.105 	 94.955
0.6152789 	 37.1432092 	 161011.2319 	 1.099 	 94.934
0.6161452 	 37.7755852 	 171903.2260 	 1.092 	 94.934
0.6169973 	 38.4203660 	 186115.2484 	 1.086 	 94.941
0.6178363 	 39.0730788 	 204475.8302 	 1.079 	 94.957
0.6186620 	 39.7243033 	 224706.6401 	 1.071 	 94.969
0.6194751 	 40.4058604 	 248804.2014 	 1.065 	 94.972
0.6202754 	 41.0843743 	 275224.6764 	 1.058 	 94.967
0.6210631 	 41.7856498 	 305475.9166 	 1.052 	 95.013
0.6218378 	 42.5094345 	 336396.4958 	 1.046 	 95.017
0.6225999 	 43.2407232 	 372492.8797 	 1.040 	 95.035
0.6233495 	 43.9919865 	 407824.3710 	 1.035 	 95.044
0.6240872 	 44.7954420 	 442417.3007 	 1.031 	 95.094
0.6248112 	 45.6061086 	 480766.0978 	 1.027 	 95.092
0.6255239 	 46.4313919 	 518239.5018 	 1.025 	 95.101
0.6262244 	 47.2892242 	 555175.0782 	 1.022 	 95.114
0.6269120 	 48.1782262 	 591050.8447 	 1.019 	 95.142
0.6275874 	 49.0681227 	 627285.0391 	 1.017 	 95.140
0.6282511 	 49.9907166 	 659668.1168 	 1.015 	 95.146
0.6289027 	 50.9438839 	 690226.0670 	 1.014 	 95.166
0.6295431 	 51.9092458 	 723069.5406 	 1.013 	 95.177
