N=100 	 R=1000000 	 s=1 	 Save [density, Z, rho_t, like/unlike, events per sweep]
0.0001336 	 1.0005080 	 1.1025 	 1.007 	 10.124
0.0132680 	 1.1624930 	 12.2296 	 0.951 	 46.851
0.0260998 	 1.1528981 	 22.9079 	 1.004 	 78.944
0.0385209 	 1.1918711 	 33.3092 	 1.013 	 88.227
0.0505389 	 1.2396948 	 43.7848 	 1.016 	 91.988
0.0621891 	 1.2922852 	 54.0959 	 1.018 	 93.809
0.0734846 	 1.3482439 	 64.5586 	 1.019 	 94.764
0.0844504 	 1.4077545 	 75.2727 	 1.020 	 95.276
0.0950954 	 1.4697157 	 86.0999 	 1.021 	 95.534
0.1054271 	 1.5337836 	 96.5907 	 1.022 	 95.646
0.1154694 	 1.6003264 	 107.0062 	 1.023 	 95.770
0.1252289 	 1.6686092 	 117.4206 	 1.024 	 95.815
0.1347236 	 1.7386981 	 127.8589 	 1.026 	 95.822
0.1439555 	 1.8101900 	 138.8748 	 1.027 	 95.883
0.1529511 	 1.8841690 	 149.4962 	 1.028 	 95.845
0.1617068 	 1.9598553 	 160.3358 	 1.030 	 95.851
0.1702352 	 2.0369777 	 171.0702 	 1.031 	 95.803
0.1785529 	 2.1157780 	 180.9896 	 1.033 	 95.788
0.1866535 	 2.1964633 	 191.5890 	 1.034 	 95.787
0.1945581 	 2.2787815 	 202.4610 	 1.035 	 95.779
0.2022648 	 2.3622572 	 212.9775 	 1.036 	 95.756
0.2097883 	 2.4472612 	 223.4624 	 1.037 	 95.726
0.2171362 	 2.5345769 	 233.7239 	 1.039 	 95.715
0.2243094 	 2.6224360 	 244.5455 	 1.040 	 95.676
0.2313171 	 2.7129683 	 254.5401 	 1.041 	 95.668
0.2381643 	 2.8038353 	 264.5105 	 1.042 	 95.622
0.2448600 	 2.8972859 	 274.6301 	 1.043 	 95.631
0.2514075 	 2.9921153 	 287.3855 	 1.045 	 95.625
0.2578091 	 3.0886125 	 298.5236 	 1.045 	 95.604
0.2640730 	 3.1862510 	 307.6492 	 1.047 	 95.609
0.2702026 	 3.2855627 	 316.9843 	 1.048 	 95.585
0.2762034 	 3.3861336 	 324.0020 	 1.048 	 95.556
0.2820797 	 3.4884738 	 333.7753 	 1.050 	 95.561
0.2878369 	 3.5927398 	 348.4486 	 1.051 	 95.547
0.2934756 	 3.6975433 	 357.5403 	 1.052 	 95.500
0.2989988 	 3.8048546 	 369.1375 	 1.053 	 95.512
0.3044118 	 3.9137687 	 377.2368 	 1.054 	 95.531
0.3097191 	 4.0230199 	 389.2540 	 1.055 	 95.485
0.3149186 	 4.1355748 	 399.8259 	 1.056 	 95.504
0.3200234 	 4.2478635 	 409.7401 	 1.057 	 95.473
0.3250324 	 4.3623658 	 420.9585 	 1.058 	 95.470
0.3299479 	 4.4778922 	 430.1514 	 1.058 	 95.426
0.3347678 	 4.5949894 	 441.1526 	 1.060 	 95.432
0.3394966 	 4.7141385 	 449.6011 	 1.061 	 95.438
0.3441440 	 4.8340347 	 460.2454 	 1.061 	 95.410
0.3487095 	 4.9563627 	 472.3317 	 1.063 	 95.407
0.3531872 	 5.0787573 	 483.7357 	 1.063 	 95.378
0.3575910 	 5.2039207 	 496.4954 	 1.064 	 95.364
0.3619177 	 5.3302601 	 505.4235 	 1.065 	 95.393
0.3661680 	 5.4574040 	 510.1261 	 1.066 	 95.348
0.3703454 	 5.5870744 	 524.3022 	 1.067 	 95.361
0.3744518 	 5.7176740 	 536.2390 	 1.067 	 95.344
0.3784926 	 5.8492194 	 545.8632 	 1.068 	 95.338
0.3824620 	 5.9815049 	 553.7547 	 1.068 	 95.295
0.3863671 	 6.1179296 	 561.6756 	 1.070 	 95.310
0.3902076 	 6.2533726 	 570.5900 	 1.070 	 95.313
0.3939864 	 6.3908119 	 582.2582 	 1.071 	 95.280
0.3977047 	 6.5287229 	 595.2227 	 1.072 	 95.255
0.4013653 	 6.6714160 	 606.3959 	 1.072 	 95.299
0.4049652 	 6.8109450 	 609.9746 	 1.072 	 95.257
0.4085108 	 6.9554228 	 619.2583 	 1.074 	 95.245
0.4120001 	 7.0989449 	 629.5079 	 1.074 	 95.253
0.4154381 	 7.2459376 	 640.5160 	 1.075 	 95.220
0.4188245 	 7.3930361 	 656.4953 	 1.076 	 95.239
0.4221609 	 7.5413999 	 669.6213 	 1.076 	 95.219
0.4254449 	 7.6918224 	 681.5675 	 1.077 	 95.218
0.4286794 	 7.8422138 	 694.0094 	 1.077 	 95.201
0.4318674 	 7.9963487 	 704.8687 	 1.078 	 95.221
0.4350094 	 8.1495564 	 717.9322 	 1.078 	 95.194
0.4381056 	 8.3059920 	 728.4075 	 1.078 	 95.189
0.4411580 	 8.4627592 	 741.4248 	 1.079 	 95.193
0.4441697 	 8.6189797 	 752.7159 	 1.079 	 95.166
0.4471390 	 8.7793946 	 761.8517 	 1.080 	 95.157
0.4500665 	 8.9408944 	 769.2223 	 1.080 	 95.163
0.4529533 	 9.1048393 	 779.6241 	 1.081 	 95.200
0.4557997 	 9.2669800 	 787.3573 	 1.081 	 95.163
0.4586109 	 9.4340699 	 799.8727 	 1.082 	 95.149
0.4613817 	 9.5996098 	 809.3974 	 1.083 	 95.161
0.4641152 	 9.7659753 	 811.5788 	 1.083 	 95.115
0.4668138 	 9.9341022 	 825.1107 	 1.083 	 95.118
0.4694767 	 10.1068880 	 832.9060 	 1.083 	 95.128
0.4721028 	 10.2787660 	 847.8983 	 1.084 	 95.136
0.4746953 	 10.4516988 	 860.8249 	 1.084 	 95.119
0.4772565 	 10.6246674 	 867.7865 	 1.084 	 95.095
0.4797819 	 10.7986974 	 880.9517 	 1.084 	 95.090
0.4822768 	 10.9794588 	 894.7652 	 1.084 	 95.089
0.4847398 	 11.1534870 	 903.2318 	 1.085 	 95.056
0.4871729 	 11.3358425 	 918.1316 	 1.086 	 95.078
0.4895740 	 11.5177369 	 923.0978 	 1.085 	 95.065
0.4919451 	 11.6988567 	 934.6447 	 1.086 	 95.057
0.4942895 	 11.8809561 	 947.6623 	 1.085 	 95.031
0.4966064 	 12.0700025 	 960.6641 	 1.085 	 95.059
0.4988951 	 12.2527600 	 960.4727 	 1.085 	 95.050
0.5011547 	 12.4448240 	 977.7590 	 1.086 	 95.049
0.5033853 	 12.6318475 	 983.8020 	 1.087 	 95.052
0.5055934 	 12.8241926 	 998.9617 	 1.086 	 95.062
0.5077731 	 13.0166931 	 1009.9307 	 1.085 	 95.046
0.5099275 	 13.2054124 	 1025.5894 	 1.086 	 95.013
0.5120561 	 13.4024887 	 1033.0733 	 1.085 	 95.026
0.5141610 	 13.6000744 	 1042.9125 	 1.086 	 95.020
0.5162426 	 13.7954386 	 1049.6144 	 1.086 	 94.996
0.5183006 	 13.9937648 	 1068.8173 	 1.086 	 95.002
0.5203363 	 14.1955825 	 1081.6067 	 1.086 	 94.993
0.5223457 	 14.3952834 	 1093.8609 	 1.086 	 94.993
0.5243337 	 14.5980155 	 1098.9897 	 1.086 	 94.985
0.5263007 	 14.8093907 	 1112.9577 	 1.086 	 94.993
0.5282452 	 15.0144690 	 1117.3359 	 1.087 	 94.996
0.5301680 	 15.2226562 	 1133.7756 	 1.086 	 94.975
0.5320689 	 15.4285985 	 1146.0307 	 1.087 	 94.972
0.5339499 	 15.6407920 	 1171.3621 	 1.086 	 94.953
0.5358100 	 15.8520761 	 1179.4247 	 1.087 	 94.965
0.5376506 	 16.0647589 	 1194.0987 	 1.086 	 94.963
0.5394720 	 16.2780817 	 1206.1197 	 1.087 	 94.952
0.5412733 	 16.4972233 	 1225.3002 	 1.087 	 94.952
0.5430556 	 16.7198788 	 1242.5027 	 1.086 	 94.952
0.5448198 	 16.9356739 	 1264.2680 	 1.087 	 94.922
0.5465645 	 17.1578513 	 1284.3951 	 1.087 	 94.927
0.5482900 	 17.3798554 	 1312.9748 	 1.087 	 94.948
0.5499979 	 17.5986959 	 1338.7391 	 1.087 	 94.914
0.5516877 	 17.8276659 	 1375.1042 	 1.087 	 94.916
0.5533595 	 18.0508285 	 1429.5864 	 1.087 	 94.902
0.5550160 	 18.2797108 	 1491.3088 	 1.087 	 94.898
0.5566556 	 18.4990325 	 1576.2922 	 1.088 	 94.907
0.5582792 	 18.7311160 	 1697.8679 	 1.087 	 94.870
0.5598880 	 18.9674388 	 1850.9017 	 1.087 	 94.890
0.5614770 	 19.1922483 	 2050.2662 	 1.086 	 94.861
0.5630526 	 19.4367715 	 2363.6698 	 1.086 	 94.882
0.5646115 	 19.6679782 	 2827.3146 	 1.086 	 94.893
0.5661550 	 19.9037546 	 3425.3041 	 1.086 	 94.880
0.5676842 	 20.1458790 	 4167.1807 	 1.085 	 94.867
0.5691978 	 20.3925397 	 5286.0364 	 1.084 	 94.849
0.5706952 	 20.6515734 	 6629.6157 	 1.084 	 94.858
0.5721775 	 20.9112381 	 8498.9615 	 1.083 	 94.856
0.5736433 	 21.1843839 	 10563.1723 	 1.082 	 94.857
0.5750944 	 21.4609722 	 12905.4990 	 1.081 	 94.847
0.5765278 	 21.7419375 	 15597.4870 	 1.081 	 94.827
0.5779450 	 22.0402986 	 18689.9691 	 1.079 	 94.825
0.5793454 	 22.3445157 	 22102.3993 	 1.077 	 94.845
0.5807297 	 22.6529546 	 25903.2074 	 1.076 	 94.832
0.5820970 	 22.9694777 	 29690.2885 	 1.074 	 94.834
0.5834470 	 23.2900415 	 34045.7205 	 1.074 	 94.800
0.5847811 	 23.6274066 	 38510.2708 	 1.074 	 94.790
0.5860981 	 23.9677949 	 42251.4677 	 1.074 	 94.756
0.5873977 	 24.3259331 	 46148.3896 	 1.074 	 94.781
0.5886813 	 24.6914972 	 49995.4434 	 1.074 	 94.764
0.5899473 	 25.0602955 	 54665.6901 	 1.074 	 94.766
0.5911963 	 25.4426008 	 59645.6626 	 1.076 	 94.747
0.5924290 	 25.8326708 	 65857.6393 	 1.078 	 94.735
0.5936450 	 26.2227722 	 73546.3980 	 1.079 	 94.702
0.5948440 	 26.6273302 	 82574.9150 	 1.081 	 94.680
0.5960251 	 27.0517897 	 93134.9871 	 1.083 	 94.681
0.5971904 	 27.4726623 	 106390.5423 	 1.085 	 94.638
0.5983394 	 27.9181436 	 119495.2954 	 1.087 	 94.609
0.5994711 	 28.3847197 	 134246.9910 	 1.090 	 94.600
0.6005865 	 28.8452941 	 149041.8151 	 1.093 	 94.555
0.6016837 	 29.3246364 	 165100.5144 	 1.096 	 94.560
0.6027648 	 29.8193531 	 178958.3741 	 1.099 	 94.544
0.6038290 	 30.3235618 	 193467.3940 	 1.102 	 94.515
0.6048771 	 30.8401600 	 207184.0227 	 1.106 	 94.511
0.6059093 	 31.3676793 	 219849.9629 	 1.108 	 94.474
0.6069246 	 31.9071644 	 229914.9259 	 1.111 	 94.483
0.6079235 	 32.4505011 	 236823.2067 	 1.114 	 94.489
0.6089071 	 32.9980428 	 239979.5003 	 1.117 	 94.454
0.6098755 	 33.5410554 	 244195.1937 	 1.121 	 94.459
0.6108292 	 34.0917372 	 245789.5444 	 1.126 	 94.471
0.6117697 	 34.6174245 	 248065.2780 	 1.131 	 94.456
0.6126967 	 35.1367961 	 249911.5979 	 1.137 	 94.430
0.6136109 	 35.6539993 	 259987.8880 	 1.143 	 94.445
0.6145136 	 36.1392035 	 280780.1109 	 1.149 	 94.417
0.6154047 	 36.6282691 	 315650.7033 	 1.155 	 94.409
0.6162861 	 37.0875136 	 365914.5045 	 1.162 	 94.368
0.6171568 	 37.5629058 	 431074.6650 	 1.168 	 94.385
0.6180174 	 38.0519779 	 501813.6632 	 1.173 	 94.358
0.6188679 	 38.5765023 	 570664.8536 	 1.177 	 94.322
0.6197074 	 39.1441916 	 632797.0140 	 1.181 	 94.302
0.6205349 	 39.7231202 	 683884.3412 	 1.183 	 94.260
0.6213503 	 40.3692769 	 722362.9156 	 1.186 	 94.270
0.6221542 	 41.0365732 	 755401.9917 	 1.187 	 94.219
0.6229445 	 41.7376625 	 779985.5401 	 1.188 	 94.196
0.6237225 	 42.4637374 	 798352.0509 	 1.190 	 94.155
0.6244876 	 43.2392847 	 814529.0863 	 1.190 	 94.155
0.6252396 	 44.0196030 	 829736.8866 	 1.191 	 94.131
0.6259789 	 44.8386875 	 845568.1280 	 1.192 	 94.108
0.6267050 	 45.6802517 	 858942.1487 	 1.192 	 94.107
0.6274185 	 46.5301095 	 871513.8815 	 1.193 	 94.098
0.6281181 	 47.4283085 	 883651.8228 	 1.193 	 94.109
0.6288060 	 48.3362907 	 894105.7224 	 1.193 	 94.093
0.6294813 	 49.2542271 	 905067.3705 	 1.193 	 94.048
