N=100 	 R=1000000 	 s=1 	 Save [density, Z, rho_t, like/unlike, events per sweep]
0.0001336 	 1.0005089 	 1.1027 	 1.006 	 10.124
0.0132488 	 1.1627692 	 12.1946 	 0.950 	 46.735
0.0260776 	 1.1528560 	 22.8473 	 1.004 	 78.927
0.0384952 	 1.1917742 	 33.3195 	 1.014 	 88.243
0.0505111 	 1.2395557 	 43.6277 	 1.016 	 92.016
0.0621621 	 1.2921446 	 54.2144 	 1.018 	 93.839
0.0734662 	 1.3481578 	 64.6957 	 1.019 	 94.780
0.0844230 	 1.4076559 	 75.5178 	 1.020 	 95.280
0.0950585 	 1.4694757 	 86.8307 	 1.021 	 95.521
0.1053989 	 1.5335041 	 96.8678 	 1.022 	 95.629
0.1154450 	 1.5998601 	 107.9806 	 1.024 	 95.733
0.1252042 	 1.6683114 	 118.8942 	 1.024 	 95.775
0.1346956 	 1.7386027 	 129.5922 	 1.026 	 95.812
0.1439333 	 1.8099176 	 139.1602 	 1.027 	 95.879
0.1529293 	 1.8838215 	 149.3087 	 1.028 	 95.833
0.1616913 	 1.9598137 	 159.9906 	 1.031 	 95.845
0.1702240 	 2.0370308 	 170.0114 	 1.031 	 95.813
0.1785466 	 2.1157611 	 180.8177 	 1.032 	 95.799
0.1866510 	 2.1963910 	 191.0180 	 1.034 	 95.754
0.1945552 	 2.2781052 	 200.9717 	 1.035 	 95.733
0.2022646 	 2.3623200 	 210.1342 	 1.036 	 95.771
0.2097867 	 2.4473574 	 220.0077 	 1.037 	 95.730
0.2171306 	 2.5342386 	 230.7474 	 1.039 	 95.702
0.2242965 	 2.6222807 	 242.7924 	 1.039 	 95.698
0.2312978 	 2.7124194 	 252.5950 	 1.041 	 95.660
0.2381459 	 2.8044509 	 262.2116 	 1.042 	 95.698
0.2448384 	 2.8971849 	 272.1592 	 1.043 	 95.642
0.2513829 	 2.9919487 	 281.8099 	 1.045 	 95.614
0.2577828 	 3.0876812 	 292.1398 	 1.046 	 95.587
0.2640505 	 3.1850453 	 300.4517 	 1.047 	 95.588
0.2701825 	 3.2854947 	 309.3362 	 1.047 	 95.612
0.2761787 	 3.3857754 	 319.3194 	 1.049 	 95.555
0.2820555 	 3.4881927 	 329.7254 	 1.049 	 95.569
0.2878100 	 3.5919927 	 339.7109 	 1.051 	 95.544
0.2934508 	 3.6976864 	 350.7092 	 1.052 	 95.521
0.2989764 	 3.8047377 	 360.9422 	 1.053 	 95.512
0.3043880 	 3.9125004 	 374.0631 	 1.053 	 95.471
0.3096952 	 4.0229103 	 381.9222 	 1.055 	 95.484
0.3149024 	 4.1341847 	 392.9082 	 1.056 	 95.498
0.3200053 	 4.2472289 	 403.0163 	 1.057 	 95.481
0.3250148 	 4.3616509 	 414.0615 	 1.057 	 95.437
0.3299312 	 4.4770322 	 424.0262 	 1.058 	 95.428
0.3347459 	 4.5949579 	 435.2162 	 1.060 	 95.424
0.3394815 	 4.7146411 	 445.4753 	 1.061 	 95.461
0.3441287 	 4.8342705 	 454.2411 	 1.061 	 95.414
0.3486887 	 4.9553527 	 464.9092 	 1.062 	 95.380
0.3531707 	 5.0782281 	 475.2959 	 1.063 	 95.378
0.3575727 	 5.2031897 	 486.5748 	 1.065 	 95.372
0.3618963 	 5.3292081 	 496.7490 	 1.065 	 95.387
0.3661468 	 5.4569314 	 505.8767 	 1.066 	 95.338
0.3703260 	 5.5862249 	 510.8922 	 1.067 	 95.343
0.3744282 	 5.7157671 	 521.0905 	 1.068 	 95.315
0.3784678 	 5.8488582 	 532.0869 	 1.068 	 95.332
0.3824379 	 5.9823722 	 543.2600 	 1.069 	 95.315
0.3863429 	 6.1157827 	 553.9178 	 1.069 	 95.295
0.3901834 	 6.2527280 	 564.0727 	 1.070 	 95.319
0.3939580 	 6.3906241 	 575.1812 	 1.071 	 95.306
0.3976797 	 6.5276280 	 584.0510 	 1.072 	 95.274
0.4013390 	 6.6707220 	 599.7899 	 1.073 	 95.323
0.4049432 	 6.8103354 	 609.6784 	 1.073 	 95.285
0.4084901 	 6.9536352 	 614.3070 	 1.074 	 95.269
0.4119827 	 7.0991417 	 624.4807 	 1.075 	 95.255
0.4154246 	 7.2432835 	 637.2404 	 1.075 	 95.220
0.4188106 	 7.3905664 	 649.1468 	 1.076 	 95.216
0.4221446 	 7.5401879 	 664.1633 	 1.076 	 95.231
0.4254308 	 7.6901430 	 679.8680 	 1.076 	 95.204
0.4286686 	 7.8425419 	 691.6253 	 1.077 	 95.219
0.4318596 	 7.9957951 	 705.0350 	 1.078 	 95.203
0.4350075 	 8.1509083 	 717.6756 	 1.078 	 95.212
0.4381038 	 8.3040960 	 726.5736 	 1.079 	 95.171
0.4411569 	 8.4624168 	 737.3199 	 1.079 	 95.191
0.4441681 	 8.6204844 	 752.8920 	 1.080 	 95.162
0.4471364 	 8.7809111 	 763.1486 	 1.080 	 95.159
0.4500633 	 8.9400327 	 776.4105 	 1.080 	 95.155
0.4529518 	 9.1002534 	 783.5975 	 1.081 	 95.135
0.4557997 	 9.2672031 	 794.6544 	 1.080 	 95.169
0.4586064 	 9.4332289 	 802.5997 	 1.082 	 95.143
0.4613759 	 9.5984833 	 806.9227 	 1.082 	 95.136
0.4641125 	 9.7663035 	 815.8275 	 1.082 	 95.132
0.4668084 	 9.9337285 	 828.5351 	 1.082 	 95.118
0.4694697 	 10.1029728 	 838.4638 	 1.083 	 95.085
0.4720993 	 10.2755090 	 845.7731 	 1.083 	 95.119
0.4746916 	 10.4484177 	 850.6436 	 1.083 	 95.110
0.4772495 	 10.6248668 	 864.5462 	 1.083 	 95.110
0.4797787 	 10.8005191 	 872.5395 	 1.084 	 95.113
0.4822734 	 10.9765516 	 879.6407 	 1.083 	 95.120
0.4847367 	 11.1553290 	 881.4982 	 1.084 	 95.071
0.4871675 	 11.3368887 	 887.5918 	 1.084 	 95.086
0.4895705 	 11.5197290 	 895.6543 	 1.084 	 95.095
0.4919445 	 11.7005090 	 905.5893 	 1.085 	 95.088
0.4942887 	 11.8861440 	 922.8223 	 1.085 	 95.082
0.4966031 	 12.0674040 	 934.6010 	 1.086 	 95.035
0.4988904 	 12.2548685 	 944.5815 	 1.087 	 95.039
0.5011505 	 12.4442683 	 957.8265 	 1.087 	 95.055
0.5033822 	 12.6328217 	 967.7466 	 1.086 	 95.040
0.5055882 	 12.8210439 	 975.8564 	 1.086 	 95.030
0.5077695 	 13.0147683 	 988.2336 	 1.087 	 95.030
0.5099245 	 13.2115565 	 999.9921 	 1.087 	 95.045
0.5120532 	 13.4015775 	 1017.4147 	 1.087 	 95.028
0.5141570 	 13.6001091 	 1030.8388 	 1.087 	 95.018
0.5162376 	 13.7931653 	 1038.9531 	 1.087 	 94.965
0.5182936 	 13.9968543 	 1053.5607 	 1.087 	 95.005
0.5203262 	 14.2006166 	 1071.8416 	 1.088 	 94.972
0.5223355 	 14.4015236 	 1080.8318 	 1.088 	 94.986
0.5243226 	 14.6021808 	 1094.4956 	 1.088 	 94.984
0.5262883 	 14.8085778 	 1103.6906 	 1.088 	 94.987
0.5282320 	 15.0089752 	 1117.2233 	 1.087 	 94.957
0.5301541 	 15.2189280 	 1131.7525 	 1.087 	 94.989
0.5320574 	 15.4282014 	 1144.6477 	 1.087 	 94.956
0.5339385 	 15.6413011 	 1145.7060 	 1.087 	 94.973
0.5357992 	 15.8578027 	 1155.6079 	 1.088 	 94.977
0.5376402 	 16.0666266 	 1160.4525 	 1.087 	 94.962
0.5394591 	 16.2838636 	 1178.9307 	 1.087 	 94.957
0.5412605 	 16.5003583 	 1197.4528 	 1.087 	 94.969
0.5430411 	 16.7201358 	 1223.2445 	 1.087 	 94.960
0.5448031 	 16.9359102 	 1240.5676 	 1.087 	 94.959
0.5465475 	 17.1523762 	 1256.8452 	 1.087 	 94.927
0.5482735 	 17.3751102 	 1284.7673 	 1.087 	 94.921
0.5499813 	 17.6014017 	 1323.2751 	 1.087 	 94.921
0.5516719 	 17.8182098 	 1370.0598 	 1.087 	 94.911
0.5533455 	 18.0458934 	 1441.6046 	 1.087 	 94.901
0.5550020 	 18.2774255 	 1550.3517 	 1.086 	 94.946
0.5566435 	 18.4900959 	 1736.1790 	 1.087 	 94.905
0.5582678 	 18.7149218 	 2046.5865 	 1.087 	 94.898
0.5598765 	 18.9434301 	 2663.8559 	 1.088 	 94.905
0.5614708 	 19.1690832 	 3596.7890 	 1.088 	 94.889
0.5630493 	 19.3889197 	 5244.1801 	 1.089 	 94.886
0.5646135 	 19.6119487 	 7832.1071 	 1.091 	 94.880
0.5661629 	 19.8342698 	 11822.3882 	 1.092 	 94.860
0.5676981 	 20.0577965 	 17751.8219 	 1.094 	 94.842
0.5692184 	 20.2928027 	 26046.2788 	 1.097 	 94.835
0.5707236 	 20.5278977 	 35700.6644 	 1.099 	 94.799
0.5722150 	 20.7839150 	 47150.8622 	 1.102 	 94.806
0.5736903 	 21.0428151 	 59324.7170 	 1.106 	 94.768
0.5751509 	 21.3141340 	 72868.4143 	 1.108 	 94.753
0.5765948 	 21.6003821 	 86434.3126 	 1.110 	 94.723
0.5780221 	 21.8964877 	 97859.1857 	 1.112 	 94.705
0.5794325 	 22.2046235 	 108576.4443 	 1.112 	 94.702
0.5808242 	 22.5264650 	 118540.7919 	 1.111 	 94.692
0.5821985 	 22.8617444 	 126603.6824 	 1.110 	 94.719
0.5835561 	 23.1999561 	 133585.2250 	 1.108 	 94.678
0.5848963 	 23.5508802 	 140223.1143 	 1.105 	 94.638
0.5862173 	 23.9056165 	 148579.6427 	 1.102 	 94.672
0.5875204 	 24.2693497 	 159406.7327 	 1.096 	 94.698
0.5888068 	 24.6383562 	 174050.5815 	 1.092 	 94.689
0.5900761 	 25.0175467 	 189872.8599 	 1.086 	 94.662
0.5913287 	 25.3995950 	 208143.7918 	 1.082 	 94.657
0.5925637 	 25.7795793 	 227780.2007 	 1.077 	 94.657
0.5937810 	 26.1808514 	 247743.4245 	 1.072 	 94.679
0.5949830 	 26.5854357 	 271597.5468 	 1.068 	 94.682
0.5961678 	 26.9863318 	 292967.1240 	 1.065 	 94.658
0.5973363 	 27.4110478 	 313819.7453 	 1.062 	 94.696
0.5984900 	 27.8350980 	 335288.9116 	 1.059 	 94.717
0.5996263 	 28.2522349 	 358092.1156 	 1.057 	 94.675
0.6007463 	 28.6906700 	 381205.8601 	 1.054 	 94.689
0.6018511 	 29.1356514 	 404731.4391 	 1.053 	 94.672
0.6029411 	 29.5706650 	 428475.7436 	 1.051 	 94.656
0.6040156 	 30.0403219 	 456257.2541 	 1.049 	 94.695
0.6050750 	 30.4935317 	 486247.8731 	 1.048 	 94.667
0.6061199 	 30.9610196 	 517173.0162 	 1.047 	 94.655
0.6071498 	 31.4573519 	 547048.6946 	 1.046 	 94.660
0.6081647 	 31.9631299 	 575556.2151 	 1.046 	 94.653
0.6091646 	 32.4849279 	 601714.0918 	 1.046 	 94.623
0.6101494 	 33.0343430 	 627062.1775 	 1.046 	 94.640
0.6111197 	 33.5950991 	 649849.5995 	 1.047 	 94.615
0.6120736 	 34.1694949 	 675709.6919 	 1.046 	 94.594
0.6130119 	 34.7716531 	 702024.1386 	 1.047 	 94.605
0.6139354 	 35.3985184 	 723043.2245 	 1.048 	 94.617
0.6148435 	 36.0251845 	 742414.3532 	 1.049 	 94.575
0.6157373 	 36.6644260 	 761995.0688 	 1.050 	 94.562
0.6166157 	 37.3350669 	 777822.1291 	 1.051 	 94.537
0.6174782 	 38.0186468 	 795994.2801 	 1.051 	 94.542
0.6183264 	 38.7181200 	 811782.9340 	 1.052 	 94.562
0.6191604 	 39.4156310 	 825316.6739 	 1.052 	 94.532
0.6199799 	 40.1340038 	 840390.6377 	 1.053 	 94.543
0.6207856 	 40.8630392 	 857124.3327 	 1.053 	 94.519
0.6215776 	 41.6162814 	 871005.0092 	 1.053 	 94.548
0.6223560 	 42.3625767 	 884933.0348 	 1.053 	 94.552
0.6231212 	 43.1401278 	 899480.3490 	 1.052 	 94.554
0.6238729 	 43.9292633 	 910238.1076 	 1.053 	 94.595
0.6246121 	 44.7170922 	 921554.5704 	 1.052 	 94.587
0.6253387 	 45.5267253 	 934215.0470 	 1.052 	 94.573
0.6260526 	 46.3610167 	 943627.3091 	 1.053 	 94.580
0.6267542 	 47.2133216 	 952613.4830 	 1.053 	 94.575
0.6274435 	 48.1008436 	 962102.5736 	 1.053 	 94.615
0.6281216 	 48.9901447 	 969184.4689 	 1.053 	 94.615
0.6287871 	 49.9062091 	 975655.7446 	 1.054 	 94.593
0.6294406 	 50.8671110 	 980705.6963 	 1.055 	 94.592
