N=100 	 R=1000000 	 s=1 	 Save [density, Z, rho_t, like/unlike, events per sweep]
0.0001348 	 1.0005144 	 1.1026 	 1.001 	 10.125
0.0132633 	 1.1625084 	 12.2067 	 0.950 	 46.836
0.0260868 	 1.1528226 	 22.8863 	 1.004 	 78.945
0.0385013 	 1.1917543 	 33.3767 	 1.013 	 88.243
0.0505189 	 1.2395178 	 43.8753 	 1.017 	 92.022
0.0621736 	 1.2921865 	 54.5311 	 1.018 	 93.781
0.0734760 	 1.3482573 	 64.8858 	 1.019 	 94.764
0.0844473 	 1.4077315 	 74.7859 	 1.020 	 95.246
0.0950921 	 1.4696468 	 85.0627 	 1.021 	 95.513
0.1054281 	 1.5338018 	 95.6672 	 1.022 	 95.661
0.1154812 	 1.6003975 	 105.5696 	 1.024 	 95.757
0.1252429 	 1.6685752 	 116.5802 	 1.025 	 95.790
0.1347397 	 1.7389710 	 127.5935 	 1.026 	 95.831
0.1439791 	 1.8103271 	 137.7063 	 1.027 	 95.860
0.1529671 	 1.8845776 	 148.5712 	 1.028 	 95.853
0.1617220 	 1.9597871 	 158.9500 	 1.030 	 95.827
0.1702556 	 2.0371396 	 169.4727 	 1.031 	 95.823
0.1785730 	 2.1163177 	 180.7610 	 1.032 	 95.802
0.1866762 	 2.1965009 	 191.4704 	 1.034 	 95.763
0.1945840 	 2.2791963 	 202.2413 	 1.035 	 95.780
0.2022905 	 2.3624528 	 211.8539 	 1.036 	 95.735
0.2098102 	 2.4477013 	 222.3782 	 1.037 	 95.728
0.2171639 	 2.5344941 	 233.3741 	 1.039 	 95.691
0.2243481 	 2.6234559 	 242.8708 	 1.040 	 95.691
0.2313522 	 2.7128064 	 253.6280 	 1.041 	 95.667
0.2381984 	 2.8046138 	 265.8207 	 1.042 	 95.615
0.2448901 	 2.8974995 	 278.2442 	 1.043 	 95.634
0.2514338 	 2.9924524 	 291.3867 	 1.043 	 95.624
0.2578322 	 3.0889522 	 301.8395 	 1.045 	 95.616
0.2640911 	 3.1866743 	 312.0893 	 1.047 	 95.606
0.2702193 	 3.2851739 	 323.0639 	 1.047 	 95.587
0.2762183 	 3.3868601 	 332.8246 	 1.049 	 95.582
0.2820896 	 3.4887653 	 343.5857 	 1.050 	 95.542
0.2878412 	 3.5928464 	 355.2385 	 1.051 	 95.547
0.2934771 	 3.6974738 	 365.2543 	 1.051 	 95.508
0.2990032 	 3.8053445 	 374.1138 	 1.052 	 95.527
0.3044165 	 3.9141304 	 382.9240 	 1.054 	 95.511
0.3097214 	 4.0233865 	 394.4940 	 1.055 	 95.501
0.3149206 	 4.1349457 	 405.9022 	 1.055 	 95.469
0.3200227 	 4.2470157 	 416.8225 	 1.057 	 95.457
0.3250289 	 4.3615043 	 427.0572 	 1.058 	 95.460
0.3299424 	 4.4768000 	 440.1636 	 1.058 	 95.423
0.3347657 	 4.5945790 	 449.0158 	 1.060 	 95.400
0.3394993 	 4.7131379 	 458.2611 	 1.060 	 95.401
0.3441415 	 4.8335221 	 468.5916 	 1.061 	 95.390
0.3487015 	 4.9569080 	 477.2401 	 1.063 	 95.418
0.3531814 	 5.0789927 	 488.8673 	 1.063 	 95.409
0.3575836 	 5.2038285 	 501.4206 	 1.065 	 95.368
0.3619080 	 5.3306414 	 513.2548 	 1.065 	 95.372
0.3661580 	 5.4572163 	 523.7648 	 1.066 	 95.362
0.3703305 	 5.5860550 	 538.4024 	 1.067 	 95.371
0.3744394 	 5.7164488 	 545.4978 	 1.068 	 95.324
0.3784774 	 5.8485676 	 558.7853 	 1.069 	 95.324
0.3824492 	 5.9816275 	 570.4082 	 1.069 	 95.313
0.3863523 	 6.1167053 	 579.8073 	 1.070 	 95.312
0.3901945 	 6.2519958 	 592.2551 	 1.070 	 95.276
0.3939709 	 6.3908811 	 605.9394 	 1.071 	 95.307
0.3976879 	 6.5301599 	 617.1857 	 1.072 	 95.299
0.4013474 	 6.6687409 	 628.9837 	 1.072 	 95.278
0.4049500 	 6.8104944 	 642.7429 	 1.073 	 95.278
0.4084963 	 6.9550326 	 654.7395 	 1.074 	 95.256
0.4119889 	 7.1003445 	 671.8752 	 1.075 	 95.234
0.4154270 	 7.2447637 	 682.8302 	 1.075 	 95.251
0.4188156 	 7.3901487 	 688.9856 	 1.075 	 95.231
0.4221535 	 7.5419107 	 697.2800 	 1.077 	 95.232
0.4254390 	 7.6906987 	 703.5901 	 1.077 	 95.206
0.4286767 	 7.8417453 	 714.7097 	 1.077 	 95.213
0.4318644 	 7.9934533 	 728.6791 	 1.078 	 95.166
0.4350083 	 8.1494842 	 743.5908 	 1.078 	 95.218
0.4381073 	 8.3036306 	 748.9131 	 1.079 	 95.177
0.4411596 	 8.4639407 	 752.9944 	 1.080 	 95.210
0.4441722 	 8.6195701 	 762.1493 	 1.080 	 95.143
0.4471392 	 8.7813006 	 770.1003 	 1.080 	 95.203
0.4500657 	 8.9424958 	 783.6701 	 1.081 	 95.148
0.4529498 	 9.1020751 	 792.8276 	 1.082 	 95.159
0.4557968 	 9.2646788 	 806.3276 	 1.081 	 95.141
0.4586057 	 9.4311937 	 817.1223 	 1.082 	 95.137
0.4613753 	 9.5958099 	 830.4047 	 1.083 	 95.119
0.4641094 	 9.7640411 	 841.2287 	 1.083 	 95.115
0.4668056 	 9.9333341 	 848.5839 	 1.083 	 95.122
0.4694677 	 10.1034160 	 862.0148 	 1.083 	 95.128
0.4720959 	 10.2768043 	 871.1214 	 1.084 	 95.115
0.4746894 	 10.4517820 	 882.0540 	 1.084 	 95.133
0.4772489 	 10.6242870 	 887.8308 	 1.085 	 95.128
0.4797757 	 10.8017182 	 896.5781 	 1.085 	 95.116
0.4822702 	 10.9766617 	 909.1238 	 1.085 	 95.101
0.4847331 	 11.1576236 	 917.4066 	 1.085 	 95.109
0.4871666 	 11.3348488 	 934.8034 	 1.085 	 95.057
0.4895689 	 11.5187787 	 942.8764 	 1.086 	 95.106
0.4919421 	 11.6990927 	 955.5143 	 1.085 	 95.083
0.4942848 	 11.8833734 	 961.9966 	 1.086 	 95.044
0.4966007 	 12.0665743 	 969.3235 	 1.086 	 95.034
0.4988863 	 12.2552190 	 982.9352 	 1.086 	 95.056
0.5011454 	 12.4411372 	 989.0196 	 1.087 	 95.055
0.5033798 	 12.6335743 	 996.1736 	 1.087 	 95.026
0.5055870 	 12.8181219 	 1007.9573 	 1.088 	 95.022
0.5077682 	 13.0127733 	 1024.5034 	 1.088 	 95.029
0.5099225 	 13.2051678 	 1037.9513 	 1.088 	 94.992
0.5120532 	 13.4048786 	 1046.5174 	 1.088 	 95.028
0.5141590 	 13.5980158 	 1052.9499 	 1.087 	 95.019
0.5162415 	 13.7953648 	 1069.1800 	 1.088 	 95.002
0.5183001 	 13.9935001 	 1072.7278 	 1.087 	 95.022
0.5203346 	 14.1956273 	 1095.8587 	 1.088 	 94.991
0.5223455 	 14.3954667 	 1094.1033 	 1.088 	 94.953
0.5243328 	 14.6000641 	 1106.0719 	 1.089 	 94.984
0.5262996 	 14.8037550 	 1117.2012 	 1.088 	 94.969
0.5282434 	 15.0127981 	 1126.2120 	 1.088 	 94.951
0.5301656 	 15.2211613 	 1149.0807 	 1.088 	 94.949
0.5320660 	 15.4277500 	 1165.7964 	 1.087 	 94.956
0.5339479 	 15.6366159 	 1182.8267 	 1.088 	 94.969
0.5358085 	 15.8493805 	 1202.7256 	 1.087 	 94.936
0.5376495 	 16.0652489 	 1215.4618 	 1.087 	 94.965
0.5394703 	 16.2754886 	 1234.5814 	 1.087 	 94.962
0.5412699 	 16.4962014 	 1252.2244 	 1.086 	 94.955
0.5430507 	 16.7103315 	 1268.3994 	 1.086 	 94.933
0.5448143 	 16.9352123 	 1293.0928 	 1.086 	 94.921
0.5465600 	 17.1509049 	 1319.9422 	 1.086 	 94.915
0.5482866 	 17.3689378 	 1339.8343 	 1.085 	 94.912
0.5499946 	 17.5997998 	 1374.8587 	 1.085 	 94.924
0.5516861 	 17.8187518 	 1417.3868 	 1.085 	 94.927
0.5533590 	 18.0499742 	 1467.1350 	 1.084 	 94.937
0.5550141 	 18.2789972 	 1529.7204 	 1.084 	 94.917
0.5566537 	 18.5118462 	 1613.9547 	 1.085 	 94.908
0.5582766 	 18.7394052 	 1718.2309 	 1.083 	 94.921
0.5598814 	 18.9773452 	 1896.0493 	 1.083 	 94.904
0.5614718 	 19.2003430 	 2110.4977 	 1.081 	 94.875
0.5630464 	 19.4388430 	 2378.6408 	 1.080 	 94.866
0.5646046 	 19.6802942 	 2753.5619 	 1.079 	 94.859
0.5661475 	 19.9152595 	 3350.2913 	 1.078 	 94.863
0.5676751 	 20.1512464 	 4141.7599 	 1.076 	 94.845
0.5691877 	 20.3833293 	 5226.7554 	 1.074 	 94.857
0.5706856 	 20.6297799 	 6614.1054 	 1.072 	 94.849
0.5721693 	 20.8823745 	 8403.0120 	 1.070 	 94.833
0.5736372 	 21.1257610 	 10931.4861 	 1.068 	 94.852
0.5750917 	 21.3879327 	 13921.5520 	 1.067 	 94.833
0.5765315 	 21.6559839 	 17592.3687 	 1.065 	 94.807
0.5779538 	 21.9366227 	 21817.8513 	 1.063 	 94.822
0.5793609 	 22.2280430 	 27055.7848 	 1.062 	 94.821
0.5807534 	 22.5235102 	 33157.7109 	 1.061 	 94.799
0.5821284 	 22.8304570 	 39977.7342 	 1.059 	 94.783
0.5834878 	 23.1619439 	 47046.0167 	 1.059 	 94.809
0.5848291 	 23.5061553 	 53893.3296 	 1.059 	 94.803
0.5861533 	 23.8621336 	 61738.2741 	 1.058 	 94.828
0.5874588 	 24.2194235 	 69597.6026 	 1.058 	 94.770
0.5887490 	 24.6048649 	 77649.3371 	 1.058 	 94.778
0.5900188 	 24.9850786 	 86349.4009 	 1.058 	 94.776
0.5912716 	 25.3927224 	 94634.3638 	 1.061 	 94.753
0.5925057 	 25.8036775 	 104583.8093 	 1.061 	 94.755
0.5937217 	 26.2428749 	 113612.7391 	 1.063 	 94.749
0.5949196 	 26.6746438 	 123580.0887 	 1.065 	 94.712
0.5961000 	 27.1241271 	 134495.2239 	 1.067 	 94.724
0.5972621 	 27.5774500 	 145609.0518 	 1.068 	 94.727
0.5984063 	 28.0472906 	 157811.3634 	 1.070 	 94.716
0.5995324 	 28.5296801 	 168892.7145 	 1.072 	 94.700
0.6006410 	 29.0114122 	 182294.4402 	 1.075 	 94.634
0.6017326 	 29.5127494 	 194381.1920 	 1.076 	 94.642
0.6028060 	 30.0241309 	 208751.6975 	 1.079 	 94.627
0.6038637 	 30.5387305 	 223647.0400 	 1.080 	 94.590
0.6049040 	 31.0655568 	 237299.8949 	 1.083 	 94.594
0.6059267 	 31.6013421 	 253070.9131 	 1.085 	 94.560
0.6069342 	 32.1531825 	 266544.7719 	 1.088 	 94.516
0.6079250 	 32.7137672 	 279508.7614 	 1.090 	 94.525
0.6089003 	 33.2850357 	 289171.9328 	 1.093 	 94.499
0.6098598 	 33.8735772 	 295530.4424 	 1.094 	 94.483
0.6108030 	 34.4600031 	 298523.3218 	 1.096 	 94.449
0.6117321 	 35.0636859 	 301784.6903 	 1.098 	 94.401
0.6126451 	 35.7035581 	 301292.5193 	 1.100 	 94.426
0.6135438 	 36.3355486 	 298237.0739 	 1.102 	 94.413
0.6144277 	 36.9762818 	 290422.9293 	 1.104 	 94.394
0.6152961 	 37.6318388 	 283669.5355 	 1.104 	 94.378
0.6161511 	 38.3037449 	 272069.7562 	 1.106 	 94.385
0.6169915 	 38.9797165 	 261058.4824 	 1.107 	 94.348
0.6178175 	 39.6917165 	 249766.9592 	 1.108 	 94.373
0.6186300 	 40.3940227 	 238221.3293 	 1.108 	 94.329
0.6194286 	 41.1257939 	 229536.8258 	 1.108 	 94.351
0.6202143 	 41.8488244 	 223003.4082 	 1.106 	 94.307
0.6209863 	 42.6069257 	 219665.2059 	 1.104 	 94.346
0.6217447 	 43.3695950 	 218700.6515 	 1.102 	 94.317
0.6224910 	 44.1650456 	 220520.6468 	 1.100 	 94.315
0.6232245 	 44.9812798 	 225764.5598 	 1.097 	 94.348
0.6239454 	 45.8066221 	 233229.6166 	 1.092 	 94.338
0.6246533 	 46.6577239 	 243807.4702 	 1.088 	 94.338
0.6253495 	 47.5390429 	 256846.0911 	 1.084 	 94.345
0.6260326 	 48.4268482 	 270202.5315 	 1.080 	 94.332
0.6267036 	 49.3644875 	 284996.3655 	 1.075 	 94.351
0.6273617 	 50.3074134 	 302133.5602 	 1.072 	 94.312
0.6280083 	 51.2997743 	 317639.5599 	 1.068 	 94.349
0.6286427 	 52.3193618 	 332100.0864 	 1.066 	 94.370
0.6292654 	 53.3504287 	 348083.2151 	 1.061 	 94.344
0.6298759 	 54.4303565 	 363605.0285 	 1.058 	 94.334
