N=100 	 R=1000000 	 s=1 	 Save [density, Z, rho_t, like/unlike, events per sweep]
0.0001354 	 1.0005138 	 1.1026 	 1.004 	 10.125
0.0132598 	 1.1626215 	 12.1809 	 0.950 	 46.827
0.0260928 	 1.1528778 	 22.8325 	 1.004 	 78.962
0.0385102 	 1.1918241 	 33.1976 	 1.013 	 88.255
0.0505321 	 1.2396149 	 43.4394 	 1.016 	 91.999
0.0621804 	 1.2922257 	 53.9731 	 1.018 	 93.783
0.0734775 	 1.3483072 	 64.1381 	 1.019 	 94.755
0.0844360 	 1.4077413 	 74.1331 	 1.020 	 95.245
0.0950790 	 1.4695913 	 84.9919 	 1.021 	 95.491
0.1054083 	 1.5338575 	 95.8688 	 1.023 	 95.664
0.1154462 	 1.6001267 	 106.3703 	 1.023 	 95.766
0.1252081 	 1.6682922 	 116.4026 	 1.025 	 95.801
0.1347030 	 1.7385684 	 127.3154 	 1.026 	 95.798
0.1439510 	 1.8100298 	 137.3442 	 1.027 	 95.848
0.1529465 	 1.8841053 	 146.6904 	 1.028 	 95.878
0.1617034 	 1.9595739 	 156.7033 	 1.030 	 95.808
0.1702350 	 2.0370752 	 165.9302 	 1.031 	 95.821
0.1785418 	 2.1161903 	 175.7034 	 1.033 	 95.821
0.1866498 	 2.1963687 	 186.7139 	 1.033 	 95.764
0.1945505 	 2.2784638 	 197.4209 	 1.035 	 95.759
0.2022630 	 2.3620568 	 208.5013 	 1.036 	 95.732
0.2097830 	 2.4481071 	 220.8579 	 1.038 	 95.750
0.2171255 	 2.5340240 	 230.6212 	 1.039 	 95.686
0.2242988 	 2.6221663 	 240.5519 	 1.040 	 95.686
0.2313059 	 2.7126646 	 249.1173 	 1.041 	 95.679
0.2381534 	 2.8042002 	 258.1461 	 1.042 	 95.662
0.2448513 	 2.8972975 	 268.1524 	 1.042 	 95.614
0.2513953 	 2.9922986 	 277.8599 	 1.044 	 95.652
0.2577998 	 3.0884540 	 289.6516 	 1.046 	 95.611
0.2640609 	 3.1865699 	 297.7385 	 1.047 	 95.619
0.2701920 	 3.2856863 	 310.9610 	 1.048 	 95.591
0.2761885 	 3.3862639 	 323.0999 	 1.049 	 95.581
0.2820711 	 3.4885876 	 333.3922 	 1.050 	 95.558
0.2878213 	 3.5926309 	 347.3259 	 1.051 	 95.530
0.2934568 	 3.6975350 	 357.8225 	 1.052 	 95.528
0.2989834 	 3.8044612 	 369.7476 	 1.053 	 95.506
0.3044007 	 3.9136083 	 380.6022 	 1.054 	 95.521
0.3097087 	 4.0236182 	 390.1125 	 1.055 	 95.523
0.3149127 	 4.1344010 	 398.3826 	 1.056 	 95.458
0.3200147 	 4.2470311 	 408.1636 	 1.057 	 95.456
0.3250219 	 4.3618237 	 421.1161 	 1.058 	 95.440
0.3299313 	 4.4774981 	 431.6171 	 1.059 	 95.437
0.3347526 	 4.5950337 	 442.1985 	 1.059 	 95.450
0.3394833 	 4.7142095 	 451.2105 	 1.060 	 95.419
0.3441275 	 4.8337005 	 462.1112 	 1.062 	 95.390
0.3486911 	 4.9561845 	 475.0327 	 1.062 	 95.411
0.3531715 	 5.0798302 	 479.4839 	 1.064 	 95.396
0.3575721 	 5.2035726 	 488.3628 	 1.065 	 95.367
0.3619000 	 5.3296848 	 495.6617 	 1.065 	 95.374
0.3661492 	 5.4572398 	 509.0076 	 1.066 	 95.366
0.3703295 	 5.5870456 	 518.8619 	 1.067 	 95.332
0.3744354 	 5.7168410 	 527.5024 	 1.067 	 95.332
0.3784735 	 5.8484780 	 538.2144 	 1.067 	 95.331
0.3824422 	 5.9820837 	 549.4575 	 1.069 	 95.320
0.3863440 	 6.1152943 	 562.7579 	 1.070 	 95.295
0.3901834 	 6.2522748 	 568.5714 	 1.070 	 95.312
0.3939607 	 6.3885790 	 574.4461 	 1.071 	 95.282
0.3976807 	 6.5276205 	 583.9614 	 1.072 	 95.283
0.4013381 	 6.6705950 	 598.1567 	 1.072 	 95.293
0.4049397 	 6.8113382 	 608.2282 	 1.072 	 95.283
0.4084867 	 6.9540058 	 620.6660 	 1.073 	 95.241
0.4119781 	 7.0976927 	 632.0557 	 1.075 	 95.238
0.4154176 	 7.2438569 	 644.2834 	 1.075 	 95.244
0.4188035 	 7.3922257 	 657.2184 	 1.076 	 95.254
0.4221403 	 7.5410388 	 664.2019 	 1.076 	 95.236
0.4254267 	 7.6924416 	 681.1387 	 1.077 	 95.231
0.4286644 	 7.8418424 	 689.8994 	 1.077 	 95.207
0.4318539 	 7.9947264 	 696.6651 	 1.078 	 95.197
0.4349982 	 8.1481878 	 705.5707 	 1.077 	 95.185
0.4380953 	 8.3020794 	 714.7222 	 1.078 	 95.155
0.4411485 	 8.4607603 	 720.1767 	 1.078 	 95.189
0.4441600 	 8.6221588 	 727.1285 	 1.080 	 95.206
0.4471284 	 8.7791781 	 736.4033 	 1.080 	 95.171
0.4500569 	 8.9387810 	 745.0397 	 1.080 	 95.133
0.4529462 	 9.1014171 	 752.8012 	 1.080 	 95.139
0.4557923 	 9.2682434 	 762.0601 	 1.081 	 95.197
0.4586020 	 9.4311164 	 777.4852 	 1.082 	 95.136
0.4613739 	 9.5974379 	 790.4724 	 1.082 	 95.118
0.4641083 	 9.7649749 	 800.4799 	 1.082 	 95.116
0.4668063 	 9.9353514 	 816.5550 	 1.082 	 95.144
0.4694702 	 10.1053352 	 832.5155 	 1.083 	 95.113
0.4720954 	 10.2759152 	 850.4570 	 1.083 	 95.102
0.4746878 	 10.4508185 	 850.2126 	 1.083 	 95.118
0.4772465 	 10.6250960 	 865.3865 	 1.083 	 95.095
0.4797719 	 10.7984247 	 881.8621 	 1.083 	 95.091
0.4822671 	 10.9788611 	 893.3783 	 1.084 	 95.089
0.4847317 	 11.1564319 	 902.0731 	 1.084 	 95.101
0.4871654 	 11.3365268 	 919.0262 	 1.085 	 95.077
0.4895699 	 11.5130501 	 927.9200 	 1.084 	 95.052
0.4919443 	 11.6971008 	 939.2001 	 1.084 	 95.079
0.4942890 	 11.8820030 	 948.5775 	 1.085 	 95.056
0.4966050 	 12.0692713 	 957.3753 	 1.085 	 95.072
0.4988934 	 12.2556962 	 969.3326 	 1.086 	 95.059
0.5011545 	 12.4455362 	 984.6267 	 1.086 	 95.051
0.5033850 	 12.6339913 	 1002.6418 	 1.086 	 95.041
0.5055914 	 12.8235659 	 1016.0389 	 1.087 	 95.048
0.5077716 	 13.0164282 	 1026.7243 	 1.087 	 95.071
0.5099276 	 13.2091087 	 1039.1424 	 1.087 	 95.046
0.5120575 	 13.4024242 	 1046.5944 	 1.087 	 95.028
0.5141634 	 13.6015552 	 1063.4125 	 1.087 	 95.020
0.5162450 	 13.7939368 	 1079.4364 	 1.087 	 94.994
0.5183019 	 13.9924263 	 1085.6813 	 1.087 	 94.967
0.5203355 	 14.1980538 	 1085.4923 	 1.086 	 95.011
0.5223471 	 14.3946058 	 1098.6181 	 1.086 	 94.983
0.5243349 	 14.5976779 	 1103.2917 	 1.085 	 94.986
0.5263016 	 14.8083653 	 1113.4692 	 1.086 	 95.016
0.5282462 	 15.0118951 	 1119.5046 	 1.085 	 94.989
0.5301689 	 15.2228387 	 1128.8094 	 1.086 	 94.995
0.5320701 	 15.4290117 	 1140.2491 	 1.087 	 94.962
0.5339495 	 15.6424191 	 1152.3096 	 1.087 	 94.982
0.5358115 	 15.8547766 	 1165.9911 	 1.087 	 94.994
0.5376518 	 16.0662081 	 1179.9446 	 1.086 	 94.973
0.5394721 	 16.2780488 	 1193.1046 	 1.086 	 94.950
0.5412746 	 16.4954878 	 1213.3151 	 1.085 	 94.930
0.5430556 	 16.7161426 	 1245.9010 	 1.086 	 94.958
0.5448200 	 16.9324909 	 1268.2338 	 1.086 	 94.963
0.5465654 	 17.1528401 	 1296.0251 	 1.086 	 94.921
0.5482919 	 17.3797964 	 1317.3009 	 1.086 	 94.955
0.5500006 	 17.5994243 	 1341.7291 	 1.085 	 94.924
0.5516909 	 17.8291644 	 1368.8814 	 1.085 	 94.922
0.5533640 	 18.0563779 	 1408.0692 	 1.085 	 94.909
0.5550189 	 18.2874126 	 1450.7209 	 1.086 	 94.895
0.5566562 	 18.5203694 	 1529.7957 	 1.085 	 94.904
0.5582776 	 18.7532182 	 1620.2376 	 1.084 	 94.917
0.5598814 	 18.9814005 	 1769.3881 	 1.084 	 94.899
0.5614713 	 19.2130447 	 1973.3010 	 1.083 	 94.863
0.5630440 	 19.4572146 	 2255.7928 	 1.083 	 94.881
0.5646022 	 19.6894922 	 2735.2087 	 1.083 	 94.881
0.5661431 	 19.9416053 	 3449.8137 	 1.082 	 94.901
0.5676691 	 20.1820892 	 4421.0880 	 1.081 	 94.894
0.5691796 	 20.4227812 	 5905.3326 	 1.080 	 94.870
0.5706763 	 20.6787116 	 7859.1191 	 1.078 	 94.866
0.5721570 	 20.9333730 	 10593.7614 	 1.077 	 94.869
0.5736222 	 21.1952058 	 14198.8326 	 1.076 	 94.885
0.5750724 	 21.4578838 	 19227.3517 	 1.074 	 94.860
0.5765054 	 21.7414608 	 25300.0750 	 1.071 	 94.902
0.5779235 	 22.0143502 	 32939.9385 	 1.068 	 94.854
0.5793278 	 22.3113963 	 41593.1186 	 1.066 	 94.871
0.5807141 	 22.6025027 	 51846.4493 	 1.063 	 94.837
0.5820854 	 22.9148003 	 62194.7513 	 1.059 	 94.849
0.5834385 	 23.2378224 	 74562.1569 	 1.057 	 94.831
0.5847769 	 23.5661883 	 88141.6480 	 1.055 	 94.808
0.5860983 	 23.9162255 	 102350.7027 	 1.052 	 94.855
0.5874025 	 24.2629009 	 117489.6740 	 1.049 	 94.824
0.5886880 	 24.6206966 	 133739.0628 	 1.046 	 94.805
0.5899580 	 24.9959800 	 148160.7241 	 1.044 	 94.810
0.5912105 	 25.3890102 	 162040.2062 	 1.043 	 94.827
0.5924452 	 25.7856845 	 175030.6222 	 1.041 	 94.778
0.5936639 	 26.2030450 	 186582.9861 	 1.040 	 94.780
0.5948644 	 26.6188310 	 197312.8170 	 1.039 	 94.749
0.5960465 	 27.0488741 	 209054.6197 	 1.039 	 94.771
0.5972113 	 27.4870729 	 219789.3084 	 1.038 	 94.740
0.5983597 	 27.9439559 	 227870.5680 	 1.037 	 94.740
0.5994899 	 28.4047674 	 236759.0189 	 1.037 	 94.718
0.6006038 	 28.8817092 	 244041.3179 	 1.036 	 94.689
0.6017007 	 29.3622531 	 253166.2385 	 1.035 	 94.655
0.6027793 	 29.8733646 	 259785.6623 	 1.035 	 94.661
0.6038418 	 30.3770741 	 267703.5836 	 1.034 	 94.640
0.6048872 	 30.8920367 	 276759.3335 	 1.033 	 94.608
0.6059170 	 31.4169507 	 282662.4819 	 1.032 	 94.572
0.6069306 	 31.9503397 	 290619.2372 	 1.031 	 94.534
0.6079284 	 32.4971924 	 301035.4839 	 1.030 	 94.527
0.6089109 	 33.0593844 	 311839.8965 	 1.028 	 94.488
0.6098774 	 33.6282126 	 321451.1466 	 1.028 	 94.468
0.6108290 	 34.2127580 	 333835.3285 	 1.027 	 94.436
0.6117649 	 34.7973708 	 345133.0006 	 1.026 	 94.376
0.6126862 	 35.4172064 	 358965.8911 	 1.025 	 94.367
0.6135918 	 36.0430621 	 374503.2505 	 1.024 	 94.323
0.6144821 	 36.6931599 	 387900.0805 	 1.024 	 94.301
0.6153581 	 37.3326891 	 401087.9736 	 1.023 	 94.235
0.6162184 	 38.0072787 	 414271.0201 	 1.023 	 94.210
0.6170652 	 38.7135694 	 426847.5962 	 1.024 	 94.181
0.6178973 	 39.4183175 	 436377.8205 	 1.024 	 94.163
0.6187146 	 40.1563799 	 446013.3482 	 1.025 	 94.125
0.6195177 	 40.9049221 	 455314.0913 	 1.026 	 94.113
0.6203070 	 41.6691422 	 462869.4476 	 1.028 	 94.055
0.6210828 	 42.4547613 	 469752.9973 	 1.030 	 94.013
0.6218444 	 43.2777774 	 475100.1110 	 1.032 	 94.017
0.6225922 	 44.1036323 	 479106.7912 	 1.035 	 93.988
0.6233261 	 44.9515167 	 481754.2969 	 1.037 	 93.943
0.6240474 	 45.8263172 	 483916.1682 	 1.040 	 93.930
0.6247548 	 46.6994891 	 485965.8396 	 1.043 	 93.912
0.6254497 	 47.6025883 	 486576.7521 	 1.046 	 93.886
0.6261319 	 48.5340173 	 486631.5196 	 1.050 	 93.851
0.6268012 	 49.4621373 	 486411.9011 	 1.053 	 93.865
0.6274584 	 50.4003364 	 486139.9147 	 1.058 	 93.845
0.6281041 	 51.3745497 	 485875.9736 	 1.063 	 93.823
0.6287377 	 52.3465227 	 486166.4996 	 1.068 	 93.823
0.6293604 	 53.3360681 	 487359.6331 	 1.074 	 93.821
0.6299715 	 54.3204331 	 490107.2304 	 1.082 	 93.796
