N=100 	 R=1000000 	 s=1 	 Save [density, Z, rho_t, like/unlike, events per sweep]
0.0001350 	 1.0005096 	 1.1026 	 1.009 	 10.124
0.0132541 	 1.1627680 	 12.2001 	 0.951 	 46.738
0.0260836 	 1.1528026 	 22.8218 	 1.004 	 78.933
0.0385143 	 1.1918865 	 33.2789 	 1.013 	 88.235
0.0505283 	 1.2395626 	 43.7220 	 1.016 	 92.009
0.0621850 	 1.2921902 	 53.9325 	 1.018 	 93.769
0.0734888 	 1.3482960 	 64.6322 	 1.019 	 94.777
0.0844525 	 1.4077270 	 74.5160 	 1.020 	 95.246
0.0950839 	 1.4696257 	 85.3226 	 1.021 	 95.515
0.1054178 	 1.5336915 	 94.9820 	 1.021 	 95.658
0.1154584 	 1.6000040 	 104.8864 	 1.023 	 95.722
0.1252266 	 1.6684732 	 116.4492 	 1.025 	 95.790
0.1347229 	 1.7386714 	 125.5405 	 1.026 	 95.809
0.1439561 	 1.8101861 	 134.2458 	 1.027 	 95.884
0.1529475 	 1.8842976 	 145.2243 	 1.028 	 95.872
0.1617084 	 1.9599363 	 156.8355 	 1.030 	 95.835
0.1702430 	 2.0370365 	 168.1190 	 1.031 	 95.812
0.1785588 	 2.1157937 	 178.7342 	 1.032 	 95.787
0.1866578 	 2.1966028 	 188.9461 	 1.034 	 95.782
0.1945653 	 2.2784650 	 199.2205 	 1.035 	 95.748
0.2022730 	 2.3622797 	 210.2999 	 1.036 	 95.740
0.2098042 	 2.4474805 	 221.2512 	 1.037 	 95.717
0.2171486 	 2.5346533 	 234.0611 	 1.039 	 95.707
0.2243219 	 2.6228072 	 245.1911 	 1.040 	 95.670
0.2313314 	 2.7127357 	 255.6977 	 1.041 	 95.665
0.2381809 	 2.8042419 	 263.2470 	 1.042 	 95.635
0.2448773 	 2.8976129 	 271.0388 	 1.043 	 95.620
0.2514218 	 2.9919630 	 280.9917 	 1.044 	 95.610
0.2578260 	 3.0882690 	 291.8270 	 1.045 	 95.604
0.2640889 	 3.1864837 	 302.0280 	 1.046 	 95.582
0.2702213 	 3.2855693 	 311.5384 	 1.048 	 95.578
0.2762203 	 3.3873282 	 323.7896 	 1.049 	 95.594
0.2820962 	 3.4885068 	 334.5478 	 1.049 	 95.546
0.2878565 	 3.5931578 	 345.3423 	 1.051 	 95.540
0.2934915 	 3.6979794 	 355.0501 	 1.051 	 95.546
0.2990168 	 3.8053707 	 364.7406 	 1.053 	 95.512
0.3044295 	 3.9132055 	 373.1583 	 1.053 	 95.474
0.3097332 	 4.0233484 	 381.1230 	 1.055 	 95.511
0.3149358 	 4.1355532 	 392.2077 	 1.056 	 95.467
0.3200413 	 4.2486884 	 402.4817 	 1.057 	 95.484
0.3250487 	 4.3623169 	 414.3256 	 1.058 	 95.469
0.3299604 	 4.4777748 	 425.7114 	 1.059 	 95.446
0.3347773 	 4.5960020 	 435.6111 	 1.060 	 95.433
0.3395045 	 4.7154809 	 444.5592 	 1.061 	 95.439
0.3441508 	 4.8338616 	 453.8474 	 1.061 	 95.384
0.3487108 	 4.9551745 	 465.7197 	 1.062 	 95.366
0.3531898 	 5.0796509 	 475.5232 	 1.063 	 95.382
0.3575907 	 5.2028001 	 482.8611 	 1.064 	 95.363
0.3619123 	 5.3298971 	 493.3928 	 1.065 	 95.370
0.3661633 	 5.4575110 	 502.9401 	 1.066 	 95.354
0.3703400 	 5.5880404 	 508.5042 	 1.066 	 95.374
0.3744441 	 5.7177189 	 517.8602 	 1.067 	 95.359
0.3784802 	 5.8500707 	 528.0334 	 1.068 	 95.359
0.3824500 	 5.9824274 	 534.8739 	 1.070 	 95.315
0.3863524 	 6.1158894 	 543.4550 	 1.070 	 95.300
0.3901924 	 6.2524437 	 557.0308 	 1.070 	 95.310
0.3939714 	 6.3919484 	 567.7954 	 1.071 	 95.317
0.3976913 	 6.5284524 	 582.2530 	 1.072 	 95.278
0.4013516 	 6.6707918 	 588.5466 	 1.073 	 95.292
0.4049538 	 6.8108897 	 601.2186 	 1.073 	 95.267
0.4084957 	 6.9526423 	 611.9842 	 1.074 	 95.214
0.4119869 	 7.0985960 	 619.6163 	 1.074 	 95.225
0.4154267 	 7.2459949 	 634.5315 	 1.075 	 95.264
0.4188145 	 7.3923036 	 649.6913 	 1.075 	 95.237
0.4221501 	 7.5401775 	 666.1123 	 1.076 	 95.226
0.4254367 	 7.6897038 	 680.4497 	 1.077 	 95.220
0.4286725 	 7.8421129 	 692.3523 	 1.077 	 95.203
0.4318639 	 7.9954383 	 696.0316 	 1.078 	 95.210
0.4350058 	 8.1494132 	 707.1256 	 1.079 	 95.207
0.4381040 	 8.3058890 	 715.8841 	 1.079 	 95.187
0.4411588 	 8.4636401 	 733.7880 	 1.080 	 95.172
0.4441696 	 8.6203831 	 743.7389 	 1.080 	 95.161
0.4471395 	 8.7802114 	 755.2131 	 1.081 	 95.171
0.4500658 	 8.9416485 	 762.1270 	 1.080 	 95.163
0.4529541 	 9.1043781 	 769.7478 	 1.081 	 95.168
0.4558032 	 9.2648955 	 774.9130 	 1.081 	 95.135
0.4586106 	 9.4328801 	 779.2814 	 1.082 	 95.153
0.4613818 	 9.5973076 	 786.6070 	 1.082 	 95.154
0.4641164 	 9.7676786 	 794.0943 	 1.083 	 95.143
0.4668149 	 9.9350737 	 806.1552 	 1.083 	 95.116
0.4694761 	 10.1084009 	 814.6956 	 1.084 	 95.147
0.4721024 	 10.2782219 	 824.1526 	 1.084 	 95.101
0.4746961 	 10.4509678 	 830.7251 	 1.084 	 95.116
0.4772552 	 10.6257226 	 851.9651 	 1.084 	 95.102
0.4797814 	 10.8015382 	 859.4468 	 1.085 	 95.093
0.4822770 	 10.9767549 	 870.6512 	 1.085 	 95.070
0.4847402 	 11.1562075 	 880.1144 	 1.086 	 95.077
0.4871729 	 11.3334930 	 889.7974 	 1.086 	 95.060
0.4895762 	 11.5170372 	 904.8995 	 1.086 	 95.079
0.4919489 	 11.6974860 	 918.2501 	 1.086 	 95.051
0.4942932 	 11.8861981 	 916.2154 	 1.087 	 95.073
0.4966102 	 12.0679616 	 928.7417 	 1.087 	 95.056
0.4988981 	 12.2545836 	 934.2204 	 1.088 	 95.061
0.5011572 	 12.4457481 	 941.2599 	 1.087 	 95.042
0.5033905 	 12.6364815 	 952.5988 	 1.088 	 95.045
0.5055970 	 12.8218031 	 958.1685 	 1.088 	 95.014
0.5077782 	 13.0144248 	 965.2428 	 1.088 	 95.023
0.5099349 	 13.2099592 	 974.8965 	 1.087 	 95.024
0.5120633 	 13.4026471 	 987.0581 	 1.088 	 95.028
0.5141684 	 13.6005648 	 999.9043 	 1.088 	 95.014
0.5162493 	 13.7995939 	 1015.9682 	 1.088 	 95.011
0.5183061 	 13.9965085 	 1030.5776 	 1.089 	 95.016
0.5203379 	 14.1978540 	 1040.2966 	 1.088 	 95.017
0.5223486 	 14.3993281 	 1055.1732 	 1.088 	 95.008
0.5243378 	 14.6037529 	 1064.5141 	 1.088 	 94.999
0.5263029 	 14.8065841 	 1074.1681 	 1.088 	 94.965
0.5282467 	 15.0136846 	 1087.8331 	 1.088 	 94.984
0.5301715 	 15.2271305 	 1106.2175 	 1.088 	 95.002
0.5320743 	 15.4289363 	 1117.6799 	 1.089 	 94.964
0.5339547 	 15.6391923 	 1129.8335 	 1.089 	 94.975
0.5358163 	 15.8523839 	 1145.9216 	 1.089 	 94.991
0.5376575 	 16.0607381 	 1152.5412 	 1.087 	 94.948
0.5394792 	 16.2799731 	 1172.4431 	 1.087 	 94.969
0.5412809 	 16.4918370 	 1190.2671 	 1.087 	 94.927
0.5430641 	 16.7101988 	 1218.5908 	 1.087 	 94.935
0.5448285 	 16.9358525 	 1241.9605 	 1.087 	 94.928
0.5465732 	 17.1538483 	 1261.9000 	 1.087 	 94.958
0.5482994 	 17.3698091 	 1288.5997 	 1.086 	 94.914
0.5500074 	 17.5989364 	 1316.7234 	 1.086 	 94.911
0.5516968 	 17.8242510 	 1353.1724 	 1.086 	 94.920
0.5533708 	 18.0563130 	 1399.2508 	 1.086 	 94.914
0.5550269 	 18.2856108 	 1447.2483 	 1.086 	 94.904
0.5566668 	 18.5184863 	 1512.6331 	 1.085 	 94.921
0.5582889 	 18.7446425 	 1589.9069 	 1.084 	 94.872
0.5598937 	 18.9874652 	 1689.6719 	 1.084 	 94.903
0.5614819 	 19.2270818 	 1788.2567 	 1.083 	 94.909
0.5630538 	 19.4597581 	 1915.3661 	 1.083 	 94.867
0.5646109 	 19.7042862 	 2090.6899 	 1.083 	 94.868
0.5661527 	 19.9498424 	 2309.7356 	 1.083 	 94.866
0.5676772 	 20.2110499 	 2588.2975 	 1.082 	 94.879
0.5691863 	 20.4569731 	 3007.7007 	 1.082 	 94.851
0.5706807 	 20.7168751 	 3535.7193 	 1.082 	 94.876
0.5721568 	 20.9710161 	 4341.6265 	 1.082 	 94.858
0.5736183 	 21.2333018 	 5425.6025 	 1.082 	 94.863
0.5750655 	 21.4919689 	 6880.8389 	 1.082 	 94.845
0.5764972 	 21.7643994 	 9021.1607 	 1.082 	 94.877
0.5779146 	 22.0301760 	 12270.2607 	 1.082 	 94.847
0.5793159 	 22.3069730 	 17071.9441 	 1.082 	 94.846
0.5807035 	 22.5916222 	 23652.6701 	 1.082 	 94.864
0.5820757 	 22.8758064 	 33249.6480 	 1.084 	 94.865
0.5834331 	 23.1517205 	 46448.3625 	 1.085 	 94.844
0.5847762 	 23.4588167 	 63120.8785 	 1.086 	 94.862
0.5861039 	 23.7681512 	 85537.5007 	 1.088 	 94.835
0.5874165 	 24.0918045 	 111938.9376 	 1.090 	 94.883
0.5887136 	 24.4257899 	 144291.8407 	 1.092 	 94.863
0.5899947 	 24.7827161 	 178116.6158 	 1.095 	 94.867
0.5912586 	 25.1549076 	 215193.5078 	 1.097 	 94.861
0.5925055 	 25.5447929 	 253277.0407 	 1.099 	 94.863
0.5937344 	 25.9469701 	 290790.7867 	 1.103 	 94.846
0.5949454 	 26.3630780 	 328315.1952 	 1.106 	 94.809
0.5961388 	 26.8114255 	 362411.7132 	 1.110 	 94.836
0.5973143 	 27.2782891 	 394768.1361 	 1.113 	 94.833
0.5984716 	 27.7437651 	 423427.2200 	 1.115 	 94.799
0.5996099 	 28.2431735 	 450903.9569 	 1.118 	 94.794
0.6007300 	 28.7480194 	 475971.3997 	 1.121 	 94.774
0.6018308 	 29.2737809 	 495857.8381 	 1.124 	 94.769
0.6029140 	 29.8117745 	 514245.3201 	 1.127 	 94.746
0.6039777 	 30.3555735 	 534074.2243 	 1.129 	 94.721
0.6050234 	 30.9305214 	 545512.6739 	 1.132 	 94.698
0.6060515 	 31.5077106 	 556192.5499 	 1.134 	 94.682
0.6070612 	 32.0978283 	 564812.5757 	 1.136 	 94.625
0.6080526 	 32.7192233 	 565466.0527 	 1.138 	 94.651
0.6090275 	 33.3359398 	 565615.4831 	 1.140 	 94.609
0.6099847 	 33.9810108 	 565775.0783 	 1.141 	 94.593
0.6109253 	 34.6337956 	 562223.3793 	 1.143 	 94.569
0.6118492 	 35.2959609 	 553016.3033 	 1.144 	 94.560
0.6127565 	 35.9849936 	 545182.8396 	 1.145 	 94.539
0.6136474 	 36.6600348 	 537453.3417 	 1.145 	 94.494
0.6145219 	 37.3688753 	 523568.4215 	 1.146 	 94.491
0.6153810 	 38.0862634 	 506490.8222 	 1.145 	 94.486
0.6162245 	 38.8113293 	 492120.0991 	 1.145 	 94.441
0.6170527 	 39.5648243 	 474785.3311 	 1.146 	 94.431
0.6178657 	 40.3119469 	 455827.6407 	 1.145 	 94.381
0.6186643 	 41.0693739 	 432281.7469 	 1.144 	 94.353
0.6194484 	 41.8587199 	 406589.2640 	 1.141 	 94.374
0.6202188 	 42.6356416 	 383971.1406 	 1.139 	 94.295
0.6209753 	 43.4597069 	 362221.2948 	 1.136 	 94.330
0.6217188 	 44.2726217 	 341638.9096 	 1.134 	 94.300
0.6224495 	 45.1180673 	 326145.4301 	 1.133 	 94.289
0.6231662 	 45.9726774 	 310747.3817 	 1.131 	 94.256
0.6238714 	 46.8332453 	 296499.3758 	 1.128 	 94.231
0.6245629 	 47.7221055 	 284522.2507 	 1.126 	 94.236
0.6252427 	 48.6115591 	 274508.1209 	 1.124 	 94.204
0.6259104 	 49.5152163 	 264742.4269 	 1.122 	 94.195
0.6265663 	 50.4502864 	 256474.1993 	 1.120 	 94.188
0.6272104 	 51.3983668 	 247316.9304 	 1.119 	 94.212
0.6278437 	 52.3280157 	 240673.0948 	 1.117 	 94.162
0.6284662 	 53.2808792 	 233674.3269 	 1.115 	 94.189
0.6290773 	 54.2462495 	 227806.5122 	 1.116 	 94.166
0.6296783 	 55.2310552 	 222371.7991 	 1.115 	 94.178
