N=100 	 R=1000000 	 s=1 	 Save [density, Z, rho_t, like/unlike, events per sweep]
0.0001349 	 1.0005135 	 1.1026 	 1.014 	 10.125
0.0132590 	 1.1625532 	 12.1807 	 0.951 	 46.857
0.0260843 	 1.1528078 	 22.9002 	 1.005 	 78.955
0.0384980 	 1.1917528 	 33.3927 	 1.013 	 88.234
0.0505137 	 1.2395825 	 43.8846 	 1.016 	 92.020
0.0621622 	 1.2921674 	 54.2232 	 1.018 	 93.792
0.0734603 	 1.3481723 	 64.4359 	 1.019 	 94.753
0.0844211 	 1.4075594 	 74.6822 	 1.020 	 95.226
0.0950622 	 1.4694898 	 85.0341 	 1.021 	 95.495
0.1054039 	 1.5337790 	 95.6190 	 1.023 	 95.683
0.1154522 	 1.6001022 	 105.9619 	 1.023 	 95.740
0.1252196 	 1.6683662 	 116.6227 	 1.024 	 95.809
0.1347153 	 1.7385761 	 127.6876 	 1.026 	 95.793
0.1439529 	 1.8099047 	 137.4684 	 1.027 	 95.848
0.1529450 	 1.8841032 	 147.8151 	 1.029 	 95.856
0.1617076 	 1.9596530 	 157.3193 	 1.029 	 95.828
0.1702400 	 2.0371628 	 169.3731 	 1.031 	 95.830
0.1785445 	 2.1156275 	 180.1120 	 1.032 	 95.799
0.1866457 	 2.1962281 	 190.2494 	 1.034 	 95.774
0.1945557 	 2.2784060 	 199.4993 	 1.035 	 95.754
0.2022667 	 2.3621070 	 206.6367 	 1.036 	 95.727
0.2097880 	 2.4476814 	 216.3781 	 1.037 	 95.724
0.2171374 	 2.5341208 	 227.4642 	 1.039 	 95.702
0.2243157 	 2.6226773 	 236.5486 	 1.040 	 95.703
0.2313240 	 2.7131744 	 247.5629 	 1.041 	 95.707
0.2381732 	 2.8042892 	 257.6912 	 1.042 	 95.642
0.2448670 	 2.8978096 	 268.1663 	 1.043 	 95.636
0.2514088 	 2.9921254 	 278.3156 	 1.044 	 95.621
0.2578094 	 3.0882907 	 288.7892 	 1.045 	 95.605
0.2640764 	 3.1858977 	 299.4968 	 1.046 	 95.593
0.2702095 	 3.2851097 	 309.2831 	 1.047 	 95.582
0.2762087 	 3.3871248 	 318.7847 	 1.049 	 95.585
0.2820838 	 3.4894100 	 329.8404 	 1.050 	 95.582
0.2878385 	 3.5923969 	 343.5088 	 1.051 	 95.531
0.2934784 	 3.6977695 	 354.8230 	 1.052 	 95.517
0.2990045 	 3.8045968 	 367.6879 	 1.053 	 95.482
0.3044173 	 3.9137756 	 375.1991 	 1.054 	 95.503
0.3097218 	 4.0235095 	 384.4201 	 1.055 	 95.494
0.3149265 	 4.1351483 	 400.9572 	 1.056 	 95.466
0.3200295 	 4.2477262 	 410.3569 	 1.057 	 95.450
0.3250354 	 4.3621344 	 421.7744 	 1.058 	 95.452
0.3299501 	 4.4778009 	 432.3495 	 1.059 	 95.458
0.3347710 	 4.5956274 	 445.3000 	 1.059 	 95.418
0.3395017 	 4.7144176 	 455.0713 	 1.061 	 95.426
0.3441528 	 4.8345869 	 467.1117 	 1.061 	 95.396
0.3487127 	 4.9574141 	 476.7192 	 1.062 	 95.429
0.3531950 	 5.0793625 	 486.8570 	 1.063 	 95.389
0.3575907 	 5.2049233 	 497.7136 	 1.064 	 95.382
0.3619173 	 5.3299807 	 510.8053 	 1.065 	 95.369
0.3661685 	 5.4576634 	 524.0037 	 1.066 	 95.352
0.3703445 	 5.5873744 	 535.2310 	 1.066 	 95.355
0.3744499 	 5.7162598 	 543.9488 	 1.068 	 95.307
0.3784894 	 5.8492398 	 552.0688 	 1.068 	 95.316
0.3824603 	 5.9832013 	 563.0584 	 1.069 	 95.329
0.3863624 	 6.1171659 	 571.4965 	 1.069 	 95.319
0.3902051 	 6.2529117 	 579.7068 	 1.070 	 95.307
0.3939847 	 6.3888713 	 592.2809 	 1.071 	 95.264
0.3977026 	 6.5293155 	 606.6421 	 1.073 	 95.282
0.4013605 	 6.6707342 	 617.2060 	 1.073 	 95.291
0.4049643 	 6.8130059 	 627.3484 	 1.073 	 95.285
0.4085122 	 6.9557052 	 639.9999 	 1.074 	 95.283
0.4120060 	 7.0997666 	 651.8709 	 1.074 	 95.239
0.4154456 	 7.2451606 	 660.1422 	 1.075 	 95.243
0.4188324 	 7.3916747 	 667.4281 	 1.075 	 95.221
0.4221674 	 7.5412540 	 673.4898 	 1.076 	 95.218
0.4254528 	 7.6935233 	 684.5319 	 1.076 	 95.242
0.4286917 	 7.8436387 	 691.0465 	 1.077 	 95.218
0.4318820 	 7.9969150 	 698.7801 	 1.077 	 95.195
0.4350285 	 8.1493707 	 719.9075 	 1.078 	 95.151
0.4381243 	 8.3064098 	 726.2496 	 1.079 	 95.181
0.4411769 	 8.4620534 	 737.4394 	 1.079 	 95.176
0.4441866 	 8.6201906 	 746.6109 	 1.080 	 95.158
0.4471558 	 8.7824380 	 755.9648 	 1.080 	 95.184
0.4500827 	 8.9403165 	 761.5013 	 1.081 	 95.153
0.4529701 	 9.1055159 	 771.1161 	 1.081 	 95.162
0.4558168 	 9.2674091 	 778.1340 	 1.081 	 95.121
0.4586255 	 9.4343068 	 787.1310 	 1.082 	 95.157
0.4613981 	 9.5986127 	 804.0439 	 1.082 	 95.124
0.4641310 	 9.7685072 	 816.1998 	 1.082 	 95.143
0.4668278 	 9.9345178 	 825.8987 	 1.083 	 95.111
0.4694903 	 10.1073905 	 835.8396 	 1.083 	 95.139
0.4721185 	 10.2776994 	 840.4966 	 1.083 	 95.104
0.4747113 	 10.4508463 	 849.6609 	 1.083 	 95.124
0.4772696 	 10.6248987 	 861.0204 	 1.084 	 95.096
0.4797950 	 10.8021293 	 869.1292 	 1.084 	 95.107
0.4822878 	 10.9786277 	 870.7357 	 1.084 	 95.077
0.4847516 	 11.1561342 	 882.2924 	 1.085 	 95.083
0.4871845 	 11.3364841 	 893.3296 	 1.085 	 95.065
0.4895896 	 11.5206579 	 904.7473 	 1.085 	 95.078
0.4919628 	 11.6980981 	 919.2909 	 1.085 	 95.056
0.4943074 	 11.8823953 	 936.7189 	 1.086 	 95.044
0.4966237 	 12.0709995 	 950.0584 	 1.086 	 95.059
0.4989111 	 12.2552258 	 959.0246 	 1.086 	 95.056
0.5011705 	 12.4430555 	 976.2988 	 1.087 	 95.040
0.5034040 	 12.6328107 	 994.9507 	 1.086 	 95.041
0.5056076 	 12.8244286 	 1009.9222 	 1.087 	 95.018
0.5077884 	 13.0160437 	 1022.8669 	 1.087 	 95.039
0.5099434 	 13.2104907 	 1026.7098 	 1.087 	 94.999
0.5120725 	 13.4079868 	 1044.8191 	 1.087 	 95.047
0.5141780 	 13.6020979 	 1054.2845 	 1.087 	 95.023
0.5162579 	 13.8000978 	 1070.1562 	 1.087 	 94.997
0.5183143 	 14.0027139 	 1081.9919 	 1.087 	 94.998
0.5203488 	 14.2021252 	 1093.4373 	 1.088 	 95.007
0.5223603 	 14.4031248 	 1108.0967 	 1.088 	 94.996
0.5243479 	 14.6063988 	 1121.7830 	 1.088 	 95.001
0.5263149 	 14.8109576 	 1131.3443 	 1.088 	 95.006
0.5282581 	 15.0191389 	 1151.2669 	 1.088 	 94.990
0.5301799 	 15.2235288 	 1159.8779 	 1.088 	 94.968
0.5320820 	 15.4291405 	 1176.3845 	 1.087 	 94.983
0.5339641 	 15.6433696 	 1193.2315 	 1.087 	 94.977
0.5358242 	 15.8553181 	 1209.7627 	 1.087 	 94.970
0.5376630 	 16.0688626 	 1231.3553 	 1.087 	 94.967
0.5394823 	 16.2867066 	 1255.8234 	 1.087 	 94.941
0.5412828 	 16.5085244 	 1273.6235 	 1.087 	 94.974
0.5430629 	 16.7245588 	 1308.1184 	 1.086 	 94.962
0.5448256 	 16.9395820 	 1317.6758 	 1.085 	 94.931
0.5465694 	 17.1637265 	 1343.1023 	 1.085 	 94.922
0.5482950 	 17.3840023 	 1363.7799 	 1.085 	 94.919
0.5500010 	 17.6070305 	 1395.6213 	 1.085 	 94.928
0.5516912 	 17.8375150 	 1437.5802 	 1.086 	 94.908
0.5533628 	 18.0638307 	 1479.4157 	 1.085 	 94.939
0.5550173 	 18.2878533 	 1540.6241 	 1.086 	 94.917
0.5566551 	 18.5239151 	 1616.0957 	 1.086 	 94.923
0.5582788 	 18.7481161 	 1703.9323 	 1.086 	 94.890
0.5598841 	 18.9837094 	 1811.6110 	 1.086 	 94.878
0.5614724 	 19.2148436 	 1987.1388 	 1.086 	 94.869
0.5630453 	 19.4550014 	 2173.4094 	 1.086 	 94.893
0.5646019 	 19.6937659 	 2404.1271 	 1.087 	 94.861
0.5661420 	 19.9408482 	 2688.7610 	 1.088 	 94.862
0.5676667 	 20.1898649 	 3067.2613 	 1.088 	 94.858
0.5691771 	 20.4380598 	 3489.7905 	 1.089 	 94.860
0.5706696 	 20.7013036 	 4026.2178 	 1.089 	 94.874
0.5721479 	 20.9674672 	 4643.9535 	 1.090 	 94.878
0.5736094 	 21.2330095 	 5467.2035 	 1.090 	 94.867
0.5750546 	 21.5084379 	 6463.3683 	 1.090 	 94.864
0.5764843 	 21.7861381 	 7629.6268 	 1.090 	 94.860
0.5778983 	 22.0770707 	 8936.9485 	 1.092 	 94.819
0.5792958 	 22.3719101 	 10602.6602 	 1.093 	 94.848
0.5806783 	 22.6775750 	 12567.6360 	 1.093 	 94.826
0.5820442 	 22.9947250 	 14734.3051 	 1.092 	 94.856
0.5833929 	 23.3132824 	 17203.3714 	 1.093 	 94.823
0.5847263 	 23.6383030 	 20255.4075 	 1.092 	 94.839
0.5860423 	 23.9826344 	 23899.2322 	 1.093 	 94.845
0.5873416 	 24.3239419 	 27615.3102 	 1.093 	 94.837
0.5886241 	 24.6886640 	 32019.6275 	 1.092 	 94.867
0.5898899 	 25.0568621 	 36641.4288 	 1.092 	 94.851
0.5911394 	 25.4247466 	 41814.4085 	 1.091 	 94.828
0.5923726 	 25.8150135 	 48209.7459 	 1.090 	 94.856
0.5935883 	 26.2111208 	 54761.1975 	 1.089 	 94.899
0.5947866 	 26.6205942 	 62085.4448 	 1.089 	 94.884
0.5959695 	 27.0336677 	 70742.1459 	 1.088 	 94.866
0.5971348 	 27.4774519 	 79473.0197 	 1.087 	 94.885
0.5982831 	 27.9286425 	 90449.4148 	 1.085 	 94.946
0.5994138 	 28.3881422 	 101055.8534 	 1.084 	 94.910
0.6005278 	 28.8576911 	 113948.9226 	 1.082 	 94.910
0.6016249 	 29.3458871 	 127644.6047 	 1.081 	 94.946
0.6027053 	 29.8472980 	 142323.5178 	 1.081 	 94.938
0.6037678 	 30.3581134 	 155715.0717 	 1.079 	 94.931
0.6048137 	 30.8938577 	 170128.0612 	 1.078 	 94.917
0.6058433 	 31.4427396 	 186474.2169 	 1.078 	 94.938
0.6068555 	 32.0032355 	 202556.1163 	 1.078 	 94.931
0.6078515 	 32.5634943 	 219187.0330 	 1.077 	 94.924
0.6088314 	 33.1500872 	 235466.7331 	 1.077 	 94.938
0.6097944 	 33.7568164 	 251341.0002 	 1.077 	 94.968
0.6107415 	 34.3798575 	 264231.3296 	 1.077 	 94.957
0.6116728 	 35.0056280 	 278590.8194 	 1.077 	 94.965
0.6125878 	 35.6407656 	 291760.8769 	 1.077 	 94.960
0.6134870 	 36.2847590 	 305376.3703 	 1.078 	 94.907
0.6143707 	 36.9531673 	 315488.9840 	 1.078 	 94.938
0.6152394 	 37.6217912 	 324862.2518 	 1.080 	 94.915
0.6160940 	 38.3056349 	 333131.8729 	 1.081 	 94.909
0.6169340 	 38.9917837 	 339138.9034 	 1.083 	 94.898
0.6177600 	 39.6842038 	 344850.9512 	 1.086 	 94.860
0.6185719 	 40.3803885 	 351500.1684 	 1.089 	 94.878
0.6193714 	 41.0470784 	 360724.2864 	 1.093 	 94.851
0.6201588 	 41.7274329 	 373127.3615 	 1.098 	 94.834
0.6209344 	 42.3680363 	 390496.3373 	 1.103 	 94.831
0.6216996 	 42.9793445 	 418798.9795 	 1.111 	 94.799
0.6224546 	 43.5603408 	 457191.6962 	 1.119 	 94.733
0.6231997 	 44.1186625 	 511873.0685 	 1.128 	 94.704
0.6239358 	 44.6983756 	 577626.0490 	 1.136 	 94.693
0.6246636 	 45.2808440 	 648755.8584 	 1.145 	 94.667
0.6253822 	 45.8928587 	 717496.6625 	 1.154 	 94.641
0.6260918 	 46.5340020 	 787383.0256 	 1.161 	 94.625
0.6267924 	 47.2692647 	 842979.8039 	 1.168 	 94.609
0.6274822 	 48.0287897 	 888494.7536 	 1.173 	 94.571
0.6281614 	 48.8368396 	 923442.5137 	 1.177 	 94.560
0.6288294 	 49.7327238 	 948828.0727 	 1.180 	 94.578
0.6294857 	 50.6288314 	 964991.2514 	 1.182 	 94.529
