N=100 	 R=1000000 	 s=1 	 Save [density, Z, rho_t, like/unlike, events per sweep]
0.0001347 	 1.0005162 	 1.1027 	 1.006 	 10.126
0.0132785 	 1.1623382 	 12.2600 	 0.951 	 46.928
0.0261056 	 1.1529194 	 22.8148 	 1.005 	 78.958
0.0385412 	 1.1919861 	 33.5106 	 1.013 	 88.270
0.0505574 	 1.2397431 	 44.2670 	 1.016 	 92.032
0.0622075 	 1.2923767 	 54.6495 	 1.017 	 93.802
0.0735089 	 1.3484655 	 64.9095 	 1.019 	 94.778
0.0844697 	 1.4078719 	 74.9300 	 1.020 	 95.243
0.0951084 	 1.4698286 	 84.6740 	 1.021 	 95.514
0.1054364 	 1.5339606 	 95.0870 	 1.023 	 95.672
0.1154808 	 1.6004468 	 105.9801 	 1.024 	 95.765
0.1252424 	 1.6685367 	 116.2492 	 1.025 	 95.797
0.1347376 	 1.7389723 	 126.2849 	 1.025 	 95.829
0.1439702 	 1.8105030 	 136.6843 	 1.027 	 95.917
0.1529610 	 1.8842521 	 147.1306 	 1.028 	 95.845
0.1617145 	 1.9601060 	 157.5504 	 1.030 	 95.841
0.1702505 	 2.0369585 	 167.7165 	 1.031 	 95.794
0.1785643 	 2.1160736 	 177.5120 	 1.033 	 95.787
0.1866723 	 2.1966857 	 189.6547 	 1.034 	 95.789
0.1945782 	 2.2788602 	 200.3810 	 1.035 	 95.762
0.2022909 	 2.3625097 	 210.4134 	 1.037 	 95.727
0.2098102 	 2.4477290 	 219.2144 	 1.037 	 95.741
0.2171547 	 2.5345994 	 229.3815 	 1.039 	 95.694
0.2243272 	 2.6226774 	 240.9032 	 1.040 	 95.677
0.2313313 	 2.7129556 	 250.2649 	 1.041 	 95.669
0.2381785 	 2.8043383 	 261.7959 	 1.042 	 95.673
0.2448712 	 2.8974873 	 271.2343 	 1.043 	 95.648
0.2514213 	 2.9926039 	 280.9107 	 1.044 	 95.645
0.2578174 	 3.0884899 	 292.9251 	 1.046 	 95.593
0.2640773 	 3.1858298 	 305.9522 	 1.046 	 95.557
0.2702067 	 3.2851341 	 316.7650 	 1.048 	 95.564
0.2762047 	 3.3861794 	 326.6988 	 1.049 	 95.557
0.2820827 	 3.4881310 	 338.0625 	 1.050 	 95.541
0.2878392 	 3.5930909 	 346.4039 	 1.051 	 95.556
0.2934739 	 3.6980568 	 357.0217 	 1.052 	 95.525
0.2989985 	 3.8051996 	 365.2359 	 1.053 	 95.534
0.3044100 	 3.9125889 	 376.2589 	 1.054 	 95.500
0.3097159 	 4.0238606 	 388.6584 	 1.055 	 95.484
0.3149190 	 4.1346561 	 395.9067 	 1.056 	 95.466
0.3200228 	 4.2469481 	 407.2118 	 1.057 	 95.466
0.3250331 	 4.3621043 	 419.2372 	 1.058 	 95.472
0.3299431 	 4.4767414 	 428.1904 	 1.059 	 95.428
0.3347626 	 4.5946823 	 436.2176 	 1.059 	 95.432
0.3394962 	 4.7148164 	 442.7370 	 1.061 	 95.437
0.3441374 	 4.8331092 	 455.1208 	 1.062 	 95.369
0.3486979 	 4.9558876 	 465.6277 	 1.063 	 95.402
0.3531787 	 5.0801704 	 477.6660 	 1.064 	 95.407
0.3575818 	 5.2039807 	 487.8593 	 1.064 	 95.375
0.3619080 	 5.3303600 	 497.5152 	 1.065 	 95.393
0.3661559 	 5.4574889 	 503.9601 	 1.066 	 95.356
0.3703366 	 5.5854266 	 513.7776 	 1.066 	 95.338
0.3744399 	 5.7169563 	 524.1176 	 1.068 	 95.326
0.3784791 	 5.8481979 	 532.6498 	 1.069 	 95.307
0.3824463 	 5.9823598 	 542.4726 	 1.069 	 95.302
0.3863537 	 6.1180586 	 554.4012 	 1.070 	 95.303
0.3901954 	 6.2535612 	 566.1358 	 1.071 	 95.286
0.3939732 	 6.3907070 	 582.0174 	 1.071 	 95.289
0.3976924 	 6.5282890 	 589.8714 	 1.071 	 95.268
0.4013535 	 6.6693929 	 601.3323 	 1.072 	 95.271
0.4049569 	 6.8108207 	 606.4006 	 1.073 	 95.244
0.4085048 	 6.9545471 	 613.2737 	 1.074 	 95.244
0.4119965 	 7.0984619 	 620.9650 	 1.075 	 95.236
0.4154331 	 7.2441450 	 628.0798 	 1.075 	 95.229
0.4188190 	 7.3924432 	 640.4769 	 1.076 	 95.237
0.4221527 	 7.5426222 	 654.0254 	 1.076 	 95.241
0.4254385 	 7.6910723 	 657.9422 	 1.076 	 95.206
0.4286767 	 7.8443009 	 670.9416 	 1.077 	 95.224
0.4318678 	 7.9958377 	 683.5637 	 1.077 	 95.194
0.4350116 	 8.1499156 	 688.1167 	 1.078 	 95.201
0.4381103 	 8.3048070 	 702.7939 	 1.078 	 95.205
0.4411648 	 8.4618258 	 711.4810 	 1.079 	 95.164
0.4441751 	 8.6199762 	 720.9156 	 1.079 	 95.153
0.4471440 	 8.7808431 	 727.1487 	 1.080 	 95.180
0.4500733 	 8.9405326 	 740.9106 	 1.080 	 95.147
0.4529603 	 9.1023464 	 745.4966 	 1.081 	 95.157
0.4558073 	 9.2667580 	 753.0277 	 1.081 	 95.140
0.4586175 	 9.4324476 	 765.7000 	 1.081 	 95.147
0.4613909 	 9.5980254 	 776.1544 	 1.082 	 95.126
0.4641258 	 9.7645875 	 785.9027 	 1.082 	 95.103
0.4668233 	 9.9363965 	 792.7112 	 1.083 	 95.135
0.4694843 	 10.1045618 	 798.7147 	 1.083 	 95.110
0.4721104 	 10.2764104 	 802.4646 	 1.084 	 95.110
0.4747026 	 10.4498199 	 816.3568 	 1.084 	 95.109
0.4772621 	 10.6258147 	 827.8110 	 1.084 	 95.111
0.4797896 	 10.7986290 	 833.4063 	 1.083 	 95.081
0.4822842 	 10.9789157 	 845.0962 	 1.085 	 95.088
0.4847457 	 11.1557959 	 850.3523 	 1.085 	 95.078
0.4871777 	 11.3364680 	 863.9927 	 1.084 	 95.078
0.4895794 	 11.5185045 	 866.0691 	 1.085 	 95.086
0.4919531 	 11.7022010 	 871.3166 	 1.085 	 95.070
0.4942966 	 11.8856160 	 879.4212 	 1.085 	 95.079
0.4966121 	 12.0678711 	 889.2907 	 1.085 	 95.078
0.4988998 	 12.2578948 	 903.6202 	 1.085 	 95.082
0.5011597 	 12.4469914 	 918.6116 	 1.085 	 95.040
0.5033922 	 12.6326244 	 934.1386 	 1.085 	 95.039
0.5055971 	 12.8233198 	 942.2246 	 1.086 	 95.035
0.5077779 	 13.0174730 	 951.1228 	 1.087 	 95.021
0.5099320 	 13.2065114 	 960.7203 	 1.087 	 94.996
0.5120621 	 13.4017971 	 966.4307 	 1.087 	 94.992
0.5141695 	 13.6010024 	 977.0731 	 1.087 	 95.014
0.5162523 	 13.7987376 	 984.2121 	 1.087 	 95.009
0.5183094 	 13.9978607 	 993.6860 	 1.087 	 95.008
0.5203436 	 14.2004027 	 1004.7228 	 1.087 	 95.022
0.5223563 	 14.3963329 	 1022.0401 	 1.087 	 94.973
0.5243421 	 14.6028212 	 1036.7965 	 1.088 	 94.993
0.5263080 	 14.8113772 	 1049.0626 	 1.089 	 94.981
0.5282520 	 15.0145831 	 1067.8661 	 1.089 	 94.997
0.5301745 	 15.2205618 	 1076.9213 	 1.088 	 94.993
0.5320768 	 15.4292146 	 1087.1178 	 1.089 	 94.961
0.5339572 	 15.6423771 	 1093.4617 	 1.088 	 94.970
0.5358192 	 15.8513003 	 1097.4464 	 1.088 	 94.947
0.5376593 	 16.0664003 	 1106.7522 	 1.087 	 94.943
0.5394798 	 16.2825531 	 1133.1468 	 1.087 	 94.975
0.5412797 	 16.5027867 	 1152.8990 	 1.088 	 94.975
0.5430599 	 16.7173734 	 1165.3307 	 1.087 	 94.931
0.5448221 	 16.9388012 	 1183.1960 	 1.087 	 94.933
0.5465678 	 17.1524659 	 1214.2033 	 1.086 	 94.907
0.5482939 	 17.3760672 	 1236.7778 	 1.086 	 94.916
0.5500014 	 17.6065995 	 1262.1261 	 1.086 	 94.945
0.5516910 	 17.8336206 	 1300.6733 	 1.085 	 94.940
0.5533637 	 18.0627360 	 1345.1189 	 1.086 	 94.919
0.5550192 	 18.2912799 	 1385.1190 	 1.086 	 94.916
0.5566577 	 18.5241071 	 1449.0969 	 1.085 	 94.911
0.5582798 	 18.7551905 	 1522.1147 	 1.085 	 94.890
0.5598829 	 18.9850819 	 1616.1502 	 1.085 	 94.876
0.5614711 	 19.2228682 	 1746.9663 	 1.085 	 94.887
0.5630438 	 19.4575794 	 1907.7685 	 1.085 	 94.872
0.5646010 	 19.6996457 	 2207.5045 	 1.086 	 94.858
0.5661406 	 19.9384214 	 2670.8700 	 1.086 	 94.858
0.5676660 	 20.1866909 	 3304.4691 	 1.088 	 94.851
0.5691756 	 20.4366347 	 4401.8514 	 1.089 	 94.851
0.5706709 	 20.6823667 	 6108.8007 	 1.090 	 94.830
0.5721524 	 20.9250125 	 8686.5711 	 1.093 	 94.808
0.5736177 	 21.1717085 	 12290.3508 	 1.096 	 94.800
0.5750683 	 21.4252214 	 17174.6454 	 1.099 	 94.814
0.5765040 	 21.6909791 	 23773.6690 	 1.103 	 94.790
0.5779259 	 21.9587311 	 32954.0815 	 1.108 	 94.772
0.5793330 	 22.2483819 	 43101.5267 	 1.112 	 94.768
0.5807245 	 22.5321154 	 55013.1744 	 1.115 	 94.720
0.5820993 	 22.8437205 	 67907.5795 	 1.120 	 94.715
0.5834574 	 23.1720785 	 82127.0331 	 1.123 	 94.703
0.5847994 	 23.4996665 	 96578.0615 	 1.126 	 94.671
0.5861237 	 23.8504537 	 111176.5588 	 1.129 	 94.650
0.5874304 	 24.2157131 	 126331.5169 	 1.131 	 94.652
0.5887207 	 24.5877887 	 139660.8944 	 1.132 	 94.633
0.5899913 	 24.9808471 	 152167.3234 	 1.134 	 94.600
0.5912447 	 25.3868955 	 165569.1277 	 1.132 	 94.596
0.5924788 	 25.8081721 	 179160.2156 	 1.133 	 94.601
0.5936940 	 26.2357308 	 193953.6545 	 1.131 	 94.559
0.5948919 	 26.6764320 	 207045.4259 	 1.129 	 94.555
0.5960713 	 27.1264542 	 224436.4140 	 1.127 	 94.559
0.5972321 	 27.5920094 	 240456.7089 	 1.123 	 94.543
0.5983752 	 28.0543272 	 253278.2355 	 1.120 	 94.511
0.5995012 	 28.5409334 	 266906.6165 	 1.116 	 94.527
0.6006089 	 29.0329997 	 279217.8784 	 1.112 	 94.526
0.6017000 	 29.5351802 	 293569.2725 	 1.109 	 94.505
0.6027731 	 30.0389514 	 303455.3807 	 1.105 	 94.498
0.6038289 	 30.5613610 	 312694.4311 	 1.102 	 94.504
0.6048684 	 31.0997394 	 318552.0287 	 1.098 	 94.508
0.6058914 	 31.6307160 	 322466.7710 	 1.095 	 94.511
0.6068980 	 32.1873725 	 325106.9601 	 1.092 	 94.542
0.6078874 	 32.7488976 	 324642.7123 	 1.090 	 94.529
0.6088625 	 33.3119864 	 323040.7589 	 1.087 	 94.529
0.6098210 	 33.8850143 	 317735.1232 	 1.085 	 94.529
0.6107640 	 34.4626001 	 310607.8316 	 1.082 	 94.558
0.6116926 	 35.0415007 	 302338.8926 	 1.081 	 94.560
0.6126072 	 35.6401656 	 292670.3444 	 1.079 	 94.612
0.6135076 	 36.2390894 	 283752.9795 	 1.077 	 94.692
0.6143940 	 36.8178933 	 274717.1124 	 1.075 	 94.679
0.6152671 	 37.4179621 	 268247.5855 	 1.073 	 94.749
0.6161277 	 38.0180778 	 264484.6577 	 1.070 	 94.798
0.6169752 	 38.5937170 	 267322.6998 	 1.068 	 94.857
0.6178106 	 39.1897002 	 280021.6279 	 1.066 	 94.963
0.6186344 	 39.8116123 	 302180.6654 	 1.063 	 95.040
0.6194461 	 40.4304070 	 335215.7129 	 1.061 	 95.101
0.6202457 	 41.0674148 	 375194.8802 	 1.059 	 95.189
0.6210340 	 41.7044402 	 425921.6614 	 1.057 	 95.222
0.6218109 	 42.3764095 	 480376.5144 	 1.056 	 95.273
0.6225761 	 43.0933949 	 539831.3471 	 1.056 	 95.363
0.6233291 	 43.8082817 	 598141.7822 	 1.054 	 95.323
0.6240692 	 44.5887121 	 655867.4453 	 1.055 	 95.384
0.6247973 	 45.3676941 	 707155.1858 	 1.056 	 95.372
0.6255131 	 46.2014232 	 754862.1087 	 1.057 	 95.394
0.6262169 	 47.0716930 	 796333.6995 	 1.057 	 95.395
0.6269085 	 47.9610901 	 831804.8227 	 1.059 	 95.417
0.6275873 	 48.8734356 	 859677.8254 	 1.061 	 95.387
0.6282541 	 49.8366929 	 884184.1371 	 1.062 	 95.411
0.6289080 	 50.7883268 	 904316.9165 	 1.064 	 95.366
0.6295496 	 51.7849705 	 920707.6806 	 1.065 	 95.320
