N=100 	 R=1000000 	 s=1 	 Save [density, Z, rho_t, like/unlike, events per sweep]
0.0001339 	 1.0005092 	 1.1027 	 1.010 	 10.124
0.0132644 	 1.1624911 	 12.2112 	 0.951 	 46.850
0.0260902 	 1.1528839 	 22.8470 	 1.005 	 78.928
0.0385045 	 1.1918275 	 33.3425 	 1.013 	 88.238
0.0505175 	 1.2395611 	 43.7511 	 1.016 	 91.996
0.0621652 	 1.2921274 	 54.4061 	 1.018 	 93.779
0.0734618 	 1.3481816 	 64.6309 	 1.018 	 94.751
0.0844199 	 1.4076196 	 74.7602 	 1.020 	 95.259
0.0950678 	 1.4694954 	 85.6724 	 1.021 	 95.515
0.1054011 	 1.5336784 	 96.6085 	 1.022 	 95.673
0.1154496 	 1.6000371 	 107.1485 	 1.023 	 95.770
0.1252123 	 1.6682947 	 117.5416 	 1.025 	 95.768
0.1347147 	 1.7385544 	 126.8648 	 1.026 	 95.811
0.1439529 	 1.8101806 	 137.5475 	 1.027 	 95.884
0.1529421 	 1.8842583 	 148.6408 	 1.028 	 95.865
0.1617065 	 1.9597856 	 160.4538 	 1.030 	 95.843
0.1702298 	 2.0370220 	 170.1733 	 1.031 	 95.824
0.1785474 	 2.1156821 	 180.5986 	 1.032 	 95.783
0.1866517 	 2.1962244 	 191.5984 	 1.033 	 95.756
0.1945615 	 2.2781798 	 204.1885 	 1.035 	 95.738
0.2022722 	 2.3621152 	 215.9509 	 1.036 	 95.712
0.2097966 	 2.4475944 	 226.2540 	 1.037 	 95.736
0.2171437 	 2.5346991 	 238.0642 	 1.039 	 95.718
0.2243191 	 2.6225196 	 247.6390 	 1.040 	 95.686
0.2313267 	 2.7132087 	 259.5587 	 1.041 	 95.714
0.2381780 	 2.8050062 	 269.7491 	 1.043 	 95.675
0.2448734 	 2.8975210 	 278.5451 	 1.043 	 95.643
0.2514173 	 2.9923401 	 290.1318 	 1.044 	 95.634
0.2578177 	 3.0885234 	 301.2915 	 1.045 	 95.610
0.2640797 	 3.1863617 	 309.8035 	 1.046 	 95.603
0.2702087 	 3.2849292 	 319.8702 	 1.048 	 95.571
0.2762112 	 3.3860546 	 329.1215 	 1.048 	 95.546
0.2820874 	 3.4880528 	 339.6581 	 1.049 	 95.557
0.2878465 	 3.5929217 	 345.9493 	 1.051 	 95.535
0.2934899 	 3.6988174 	 355.5195 	 1.052 	 95.530
0.2990167 	 3.8051380 	 365.8125 	 1.052 	 95.512
0.3044337 	 3.9139438 	 377.9335 	 1.054 	 95.503
0.3097353 	 4.0234833 	 391.3875 	 1.055 	 95.493
0.3149362 	 4.1349543 	 400.1786 	 1.055 	 95.466
0.3200394 	 4.2475397 	 409.3932 	 1.056 	 95.470
0.3250468 	 4.3621231 	 418.7547 	 1.058 	 95.445
0.3299601 	 4.4792159 	 430.2225 	 1.058 	 95.455
0.3347844 	 4.5960035 	 439.7752 	 1.060 	 95.448
0.3395126 	 4.7141704 	 451.2663 	 1.061 	 95.437
0.3441596 	 4.8344122 	 461.5949 	 1.062 	 95.396
0.3487222 	 4.9561691 	 471.8456 	 1.062 	 95.392
0.3532008 	 5.0798003 	 483.9557 	 1.063 	 95.396
0.3575983 	 5.2039352 	 493.8561 	 1.064 	 95.374
0.3619222 	 5.3298092 	 501.5735 	 1.065 	 95.373
0.3661740 	 5.4580557 	 514.6921 	 1.066 	 95.361
0.3703468 	 5.5869778 	 523.5154 	 1.067 	 95.358
0.3744507 	 5.7169961 	 533.7539 	 1.067 	 95.344
0.3784902 	 5.8500332 	 539.5099 	 1.068 	 95.326
0.3824616 	 5.9831507 	 551.2750 	 1.069 	 95.331
0.3863653 	 6.1174599 	 563.0987 	 1.070 	 95.316
0.3902069 	 6.2526120 	 574.2235 	 1.070 	 95.297
0.3939853 	 6.3916630 	 585.2099 	 1.071 	 95.300
0.3977018 	 6.5296919 	 601.6677 	 1.072 	 95.274
0.4013632 	 6.6694141 	 612.4787 	 1.072 	 95.283
0.4049663 	 6.8116630 	 623.0953 	 1.073 	 95.298
0.4085122 	 6.9545746 	 635.3616 	 1.074 	 95.257
0.4120066 	 7.0992833 	 643.0488 	 1.074 	 95.247
0.4154436 	 7.2453379 	 659.6133 	 1.074 	 95.250
0.4188298 	 7.3928487 	 667.2506 	 1.075 	 95.240
0.4221653 	 7.5416499 	 672.3685 	 1.076 	 95.245
0.4254514 	 7.6922344 	 681.7612 	 1.077 	 95.199
0.4286877 	 7.8422854 	 687.3605 	 1.077 	 95.215
0.4318775 	 7.9975627 	 701.6284 	 1.077 	 95.208
0.4350173 	 8.1489645 	 709.8355 	 1.078 	 95.166
0.4381150 	 8.3056405 	 718.5367 	 1.078 	 95.171
0.4411687 	 8.4633733 	 723.2926 	 1.079 	 95.194
0.4441800 	 8.6206084 	 731.4611 	 1.080 	 95.155
0.4471488 	 8.7800628 	 740.3470 	 1.080 	 95.163
0.4500772 	 8.9419472 	 751.2562 	 1.081 	 95.150
0.4529639 	 9.1029240 	 758.5356 	 1.081 	 95.157
0.4558117 	 9.2664748 	 766.7528 	 1.082 	 95.139
0.4586202 	 9.4329121 	 778.5609 	 1.082 	 95.157
0.4613913 	 9.5971822 	 786.8868 	 1.082 	 95.126
0.4641232 	 9.7662011 	 792.6364 	 1.083 	 95.141
0.4668197 	 9.9332183 	 798.3895 	 1.083 	 95.118
0.4694810 	 10.1046456 	 811.8785 	 1.083 	 95.111
0.4721087 	 10.2775040 	 821.5740 	 1.083 	 95.098
0.4747012 	 10.4498407 	 835.0853 	 1.083 	 95.103
0.4772617 	 10.6252541 	 843.9611 	 1.084 	 95.095
0.4797897 	 10.7989922 	 854.2414 	 1.084 	 95.072
0.4822823 	 10.9764195 	 863.8047 	 1.084 	 95.080
0.4847472 	 11.1533042 	 880.8878 	 1.084 	 95.064
0.4871789 	 11.3360893 	 887.1973 	 1.085 	 95.071
0.4895831 	 11.5173046 	 896.5503 	 1.085 	 95.055
0.4919570 	 11.7004375 	 911.5504 	 1.085 	 95.068
0.4943006 	 11.8863808 	 919.6666 	 1.085 	 95.083
0.4966170 	 12.0699313 	 929.7304 	 1.085 	 95.058
0.4989031 	 12.2560238 	 953.3063 	 1.085 	 95.062
0.5011637 	 12.4428132 	 962.6426 	 1.086 	 95.057
0.5033953 	 12.6354931 	 974.0833 	 1.087 	 95.069
0.5056021 	 12.8237482 	 986.0828 	 1.087 	 95.063
0.5077825 	 13.0192740 	 987.9625 	 1.086 	 95.040
0.5099365 	 13.2095943 	 1002.9919 	 1.087 	 95.028
0.5120659 	 13.4042583 	 1010.1583 	 1.087 	 95.000
0.5141703 	 13.6017381 	 1027.6727 	 1.087 	 95.021
0.5162521 	 13.7987137 	 1036.6319 	 1.087 	 95.013
0.5183112 	 13.9979137 	 1048.2871 	 1.087 	 95.028
0.5203452 	 14.1968486 	 1059.7519 	 1.087 	 94.996
0.5223568 	 14.3989563 	 1071.6278 	 1.086 	 95.042
0.5243451 	 14.6044742 	 1080.4179 	 1.087 	 94.990
0.5263121 	 14.8068935 	 1094.0259 	 1.087 	 94.980
0.5282559 	 15.0172139 	 1105.5098 	 1.088 	 94.993
0.5301799 	 15.2271511 	 1115.0583 	 1.087 	 94.966
0.5320808 	 15.4319267 	 1125.3538 	 1.087 	 94.975
0.5339610 	 15.6436979 	 1133.9229 	 1.087 	 94.950
0.5358205 	 15.8540191 	 1152.0795 	 1.087 	 94.946
0.5376612 	 16.0707721 	 1161.8667 	 1.086 	 94.989
0.5394815 	 16.2828508 	 1179.3070 	 1.085 	 94.962
0.5412834 	 16.5016242 	 1205.9165 	 1.086 	 94.933
0.5430646 	 16.7181124 	 1222.3751 	 1.086 	 94.937
0.5448279 	 16.9357793 	 1246.0503 	 1.086 	 94.934
0.5465715 	 17.1563075 	 1257.4342 	 1.085 	 94.908
0.5482973 	 17.3777481 	 1287.1699 	 1.085 	 94.921
0.5500049 	 17.6080661 	 1322.6313 	 1.084 	 94.911
0.5516948 	 17.8308594 	 1364.6614 	 1.085 	 94.930
0.5533677 	 18.0627313 	 1390.4182 	 1.084 	 94.914
0.5550219 	 18.2867252 	 1439.7520 	 1.084 	 94.903
0.5566604 	 18.5218994 	 1486.1909 	 1.084 	 94.936
0.5582801 	 18.7533577 	 1550.7436 	 1.084 	 94.903
0.5598863 	 18.9791848 	 1645.1078 	 1.083 	 94.895
0.5614761 	 19.2192646 	 1763.8161 	 1.083 	 94.885
0.5630492 	 19.4534591 	 1904.5426 	 1.083 	 94.866
0.5646069 	 19.6961291 	 2098.0183 	 1.081 	 94.880
0.5661478 	 19.9347775 	 2329.2063 	 1.081 	 94.873
0.5676756 	 20.1861475 	 2609.5496 	 1.081 	 94.877
0.5691862 	 20.4320288 	 3026.9453 	 1.082 	 94.855
0.5706809 	 20.6879074 	 3565.6257 	 1.082 	 94.845
0.5721613 	 20.9390693 	 4331.8806 	 1.080 	 94.854
0.5736254 	 21.1942522 	 5529.5585 	 1.080 	 94.854
0.5750742 	 21.4518580 	 7103.5270 	 1.079 	 94.809
0.5765093 	 21.7199460 	 9257.8982 	 1.079 	 94.848
0.5779298 	 21.9815898 	 12312.6323 	 1.077 	 94.820
0.5793352 	 22.2632684 	 16587.0399 	 1.075 	 94.824
0.5807260 	 22.5403127 	 22524.0224 	 1.074 	 94.799
0.5821013 	 22.8293725 	 29696.1446 	 1.073 	 94.777
0.5834603 	 23.1362934 	 38896.1285 	 1.071 	 94.765
0.5848033 	 23.4487532 	 50005.1184 	 1.069 	 94.756
0.5861321 	 23.7631752 	 64861.2193 	 1.066 	 94.722
0.5874448 	 24.0938285 	 82320.5492 	 1.064 	 94.707
0.5887420 	 24.4448920 	 101675.7288 	 1.062 	 94.716
0.5900224 	 24.8023690 	 120810.0397 	 1.060 	 94.658
0.5912852 	 25.1797942 	 144002.3151 	 1.059 	 94.652
0.5925304 	 25.5677876 	 168854.9479 	 1.057 	 94.627
0.5937584 	 25.9731513 	 192620.5429 	 1.055 	 94.605
0.5949676 	 26.3927509 	 216500.4547 	 1.054 	 94.578
0.5961605 	 26.8374295 	 240024.2055 	 1.053 	 94.576
0.5973357 	 27.2909476 	 263292.2018 	 1.052 	 94.538
0.5984924 	 27.7539522 	 287245.4742 	 1.053 	 94.521
0.5996318 	 28.2365734 	 307982.7522 	 1.052 	 94.485
0.6007509 	 28.7392690 	 328114.0802 	 1.052 	 94.493
0.6018526 	 29.2480218 	 348150.7521 	 1.052 	 94.471
0.6029372 	 29.7712520 	 363278.4429 	 1.052 	 94.456
0.6040035 	 30.3074664 	 378733.5560 	 1.052 	 94.476
0.6050512 	 30.8565831 	 395927.8199 	 1.052 	 94.417
0.6060819 	 31.4182585 	 411315.9426 	 1.053 	 94.440
0.6070955 	 31.9935946 	 427961.8967 	 1.052 	 94.417
0.6080915 	 32.5810647 	 441293.5995 	 1.052 	 94.421
0.6090703 	 33.1695947 	 451911.3587 	 1.052 	 94.386
0.6100331 	 33.7793633 	 465206.8695 	 1.052 	 94.379
0.6109788 	 34.3979847 	 479934.9938 	 1.052 	 94.390
0.6119085 	 35.0326280 	 489814.9963 	 1.052 	 94.380
0.6128230 	 35.6755727 	 500361.7309 	 1.051 	 94.400
0.6137217 	 36.3101925 	 510774.9085 	 1.051 	 94.392
0.6146062 	 36.9769395 	 518862.5162 	 1.051 	 94.381
0.6154752 	 37.6505124 	 525437.3061 	 1.049 	 94.435
0.6163298 	 38.3062198 	 531280.6492 	 1.048 	 94.377
0.6171700 	 38.9931811 	 534737.0842 	 1.047 	 94.366
0.6179959 	 39.6993962 	 537984.9499 	 1.046 	 94.409
0.6188081 	 40.3897365 	 538251.0069 	 1.044 	 94.393
0.6196078 	 41.1046908 	 533690.3196 	 1.043 	 94.399
0.6203942 	 41.8367111 	 530435.1675 	 1.041 	 94.398
0.6211670 	 42.5615020 	 526279.7793 	 1.039 	 94.390
0.6219273 	 43.3279289 	 519267.9579 	 1.038 	 94.423
0.6226755 	 44.0731082 	 512124.0010 	 1.036 	 94.466
0.6234109 	 44.8523849 	 506921.5300 	 1.034 	 94.417
0.6241343 	 45.6315399 	 503313.2194 	 1.033 	 94.445
0.6248459 	 46.4178029 	 499281.7136 	 1.032 	 94.448
0.6255455 	 47.2608896 	 496049.1528 	 1.031 	 94.475
0.6262334 	 48.0912304 	 494285.9562 	 1.030 	 94.446
0.6269098 	 48.9738447 	 492724.6400 	 1.029 	 94.460
0.6275747 	 49.8578964 	 492585.7160 	 1.027 	 94.472
0.6282281 	 50.7510694 	 492681.5290 	 1.027 	 94.447
0.6288701 	 51.6767884 	 493357.5369 	 1.026 	 94.455
0.6295012 	 52.6254317 	 494327.1827 	 1.025 	 94.461
