N=100 	 R=1000000 	 s=1 	 Save [density, Z, rho_t, like/unlike, events per sweep]
0.0001350 	 1.0005137 	 1.1026 	 1.008 	 10.125
0.0132594 	 1.1626446 	 12.2137 	 0.950 	 46.800
0.0260852 	 1.1528696 	 22.8724 	 1.004 	 78.951
0.0385042 	 1.1918535 	 33.1689 	 1.013 	 88.252
0.0505214 	 1.2395740 	 43.7242 	 1.016 	 92.017
0.0621751 	 1.2922086 	 54.1258 	 1.017 	 93.790
0.0734652 	 1.3481711 	 64.4753 	 1.018 	 94.760
0.0844236 	 1.4076117 	 74.5878 	 1.020 	 95.239
0.0950649 	 1.4695205 	 85.5304 	 1.021 	 95.520
0.1054061 	 1.5336889 	 95.6702 	 1.022 	 95.657
0.1154486 	 1.6001330 	 106.3183 	 1.024 	 95.779
0.1252171 	 1.6684835 	 115.8888 	 1.025 	 95.794
0.1347154 	 1.7386615 	 127.1396 	 1.026 	 95.823
0.1439575 	 1.8102456 	 137.5324 	 1.027 	 95.891
0.1529462 	 1.8841067 	 148.2328 	 1.029 	 95.852
0.1617050 	 1.9596426 	 158.8850 	 1.030 	 95.827
0.1702339 	 2.0369271 	 169.6023 	 1.031 	 95.796
0.1785526 	 2.1160453 	 178.1652 	 1.033 	 95.820
0.1866679 	 2.1967131 	 188.1653 	 1.034 	 95.808
0.1945654 	 2.2782092 	 196.5430 	 1.035 	 95.723
0.2022752 	 2.3624146 	 206.7957 	 1.036 	 95.763
0.2098011 	 2.4474281 	 215.6357 	 1.037 	 95.694
0.2171472 	 2.5345469 	 226.7954 	 1.039 	 95.715
0.2243165 	 2.6228561 	 236.8232 	 1.039 	 95.688
0.2313242 	 2.7126135 	 246.8365 	 1.041 	 95.653
0.2381775 	 2.8042191 	 258.3694 	 1.043 	 95.651
0.2448718 	 2.8974918 	 268.7900 	 1.043 	 95.650
0.2514177 	 2.9927818 	 279.0311 	 1.044 	 95.661
0.2578153 	 3.0884965 	 291.0103 	 1.046 	 95.626
0.2640758 	 3.1860593 	 301.4408 	 1.046 	 95.605
0.2702030 	 3.2850965 	 314.2686 	 1.048 	 95.572
0.2761996 	 3.3864394 	 322.7305 	 1.048 	 95.567
0.2820781 	 3.4888861 	 334.2831 	 1.050 	 95.574
0.2878272 	 3.5918325 	 344.6528 	 1.052 	 95.509
0.2934673 	 3.6979613 	 354.3631 	 1.052 	 95.545
0.2989854 	 3.8054070 	 365.5311 	 1.052 	 95.536
0.3043966 	 3.9135651 	 375.8842 	 1.055 	 95.507
0.3097027 	 4.0229281 	 386.2385 	 1.055 	 95.484
0.3149058 	 4.1348159 	 394.0396 	 1.056 	 95.484
0.3200112 	 4.2471195 	 403.0391 	 1.057 	 95.460
0.3250181 	 4.3616920 	 414.4550 	 1.058 	 95.467
0.3299305 	 4.4773068 	 429.0594 	 1.058 	 95.436
0.3347542 	 4.5944393 	 440.9933 	 1.060 	 95.406
0.3394911 	 4.7139883 	 448.5047 	 1.061 	 95.414
0.3441400 	 4.8344087 	 460.2851 	 1.061 	 95.394
0.3487010 	 4.9572916 	 473.6473 	 1.062 	 95.429
0.3531846 	 5.0798598 	 481.8505 	 1.064 	 95.404
0.3575895 	 5.2033657 	 494.4190 	 1.064 	 95.353
0.3619158 	 5.3304046 	 505.4883 	 1.065 	 95.368
0.3661664 	 5.4571007 	 515.7886 	 1.065 	 95.340
0.3703423 	 5.5868856 	 526.1239 	 1.066 	 95.340
0.3744477 	 5.7172164 	 535.5424 	 1.068 	 95.347
0.3784869 	 5.8499044 	 547.6824 	 1.068 	 95.349
0.3824541 	 5.9833016 	 556.8666 	 1.069 	 95.332
0.3863624 	 6.1163177 	 566.4658 	 1.069 	 95.306
0.3902056 	 6.2520590 	 573.4332 	 1.070 	 95.295
0.3939840 	 6.3905944 	 586.3146 	 1.072 	 95.288
0.3977016 	 6.5298407 	 593.8121 	 1.072 	 95.288
0.4013600 	 6.6706525 	 602.6788 	 1.073 	 95.288
0.4049637 	 6.8119867 	 614.1996 	 1.073 	 95.274
0.4085100 	 6.9552639 	 622.8818 	 1.073 	 95.273
0.4120032 	 7.1004208 	 635.1256 	 1.074 	 95.261
0.4154412 	 7.2457495 	 645.6062 	 1.075 	 95.252
0.4188278 	 7.3934857 	 659.0015 	 1.075 	 95.229
0.4221623 	 7.5425097 	 671.5255 	 1.076 	 95.232
0.4254475 	 7.6910290 	 684.5119 	 1.076 	 95.219
0.4286835 	 7.8441950 	 692.4939 	 1.077 	 95.213
0.4318747 	 7.9957402 	 699.4729 	 1.078 	 95.201
0.4350170 	 8.1500392 	 712.0638 	 1.078 	 95.195
0.4381147 	 8.3060613 	 724.1878 	 1.079 	 95.178
0.4411688 	 8.4619422 	 730.9078 	 1.079 	 95.172
0.4441784 	 8.6203282 	 746.1161 	 1.080 	 95.183
0.4471455 	 8.7801312 	 763.5723 	 1.080 	 95.173
0.4500759 	 8.9422126 	 775.0649 	 1.081 	 95.170
0.4529636 	 9.1034961 	 785.8248 	 1.081 	 95.146
0.4558094 	 9.2665135 	 799.6715 	 1.082 	 95.151
0.4586192 	 9.4335364 	 813.0579 	 1.082 	 95.152
0.4613891 	 9.5973995 	 814.0781 	 1.083 	 95.133
0.4641246 	 9.7672928 	 818.3426 	 1.083 	 95.131
0.4668216 	 9.9357205 	 832.5016 	 1.083 	 95.125
0.4694821 	 10.1060035 	 844.8288 	 1.084 	 95.099
0.4721100 	 10.2759450 	 857.0127 	 1.084 	 95.124
0.4747028 	 10.4502104 	 872.5763 	 1.085 	 95.093
0.4772641 	 10.6247863 	 880.8739 	 1.085 	 95.101
0.4797901 	 10.7998036 	 894.1118 	 1.084 	 95.081
0.4822839 	 10.9790072 	 901.5417 	 1.085 	 95.093
0.4847469 	 11.1559363 	 910.7370 	 1.085 	 95.094
0.4871819 	 11.3357083 	 920.5244 	 1.085 	 95.062
0.4895849 	 11.5139697 	 931.9668 	 1.085 	 95.060
0.4919580 	 11.7022883 	 947.2792 	 1.086 	 95.098
0.4943013 	 11.8830230 	 959.6437 	 1.087 	 95.029
0.4966162 	 12.0688418 	 967.2086 	 1.086 	 95.064
0.4989020 	 12.2554483 	 972.6452 	 1.087 	 95.039
0.5011607 	 12.4391237 	 985.7297 	 1.087 	 95.023
0.5033946 	 12.6349737 	 992.5929 	 1.087 	 95.051
0.5056013 	 12.8245997 	 1002.4378 	 1.087 	 95.048
0.5077813 	 13.0170950 	 1013.4745 	 1.086 	 95.030
0.5099361 	 13.2084221 	 1022.9769 	 1.087 	 95.038
0.5120662 	 13.4071570 	 1041.6642 	 1.087 	 95.045
0.5141730 	 13.6002944 	 1050.7437 	 1.087 	 95.024
0.5162543 	 13.7981001 	 1063.8147 	 1.087 	 95.026
0.5183116 	 13.9995238 	 1074.8553 	 1.087 	 95.010
0.5203455 	 14.2014713 	 1090.1342 	 1.087 	 95.002
0.5223576 	 14.3979751 	 1096.9886 	 1.087 	 94.974
0.5243439 	 14.6044878 	 1102.7125 	 1.087 	 95.012
0.5263109 	 14.8083697 	 1118.3499 	 1.087 	 94.982
0.5282549 	 15.0154939 	 1138.9822 	 1.086 	 94.995
0.5301762 	 15.2244119 	 1148.4874 	 1.086 	 94.976
0.5320782 	 15.4311620 	 1162.7087 	 1.086 	 94.998
0.5339582 	 15.6437819 	 1171.2075 	 1.086 	 94.977
0.5358195 	 15.8573577 	 1197.0413 	 1.086 	 94.960
0.5376582 	 16.0719430 	 1218.6795 	 1.086 	 94.943
0.5394785 	 16.2801204 	 1222.3685 	 1.085 	 94.954
0.5412797 	 16.5004720 	 1223.6749 	 1.086 	 94.972
0.5430619 	 16.7161115 	 1240.5531 	 1.086 	 94.954
0.5448244 	 16.9367320 	 1268.4581 	 1.086 	 94.931
0.5465685 	 17.1552476 	 1285.3255 	 1.086 	 94.915
0.5482953 	 17.3766629 	 1313.8421 	 1.086 	 94.910
0.5500035 	 17.6072128 	 1336.2673 	 1.086 	 94.912
0.5516925 	 17.8325496 	 1355.0512 	 1.085 	 94.935
0.5533647 	 18.0577982 	 1384.3904 	 1.084 	 94.898
0.5550203 	 18.2892646 	 1424.0180 	 1.083 	 94.919
0.5566582 	 18.5170733 	 1476.4249 	 1.083 	 94.872
0.5582799 	 18.7560216 	 1541.4771 	 1.082 	 94.917
0.5598838 	 18.9851855 	 1616.2560 	 1.082 	 94.861
0.5614721 	 19.2258987 	 1721.4619 	 1.082 	 94.873
0.5630441 	 19.4626287 	 1885.1522 	 1.081 	 94.865
0.5646024 	 19.7044017 	 2084.2139 	 1.081 	 94.877
0.5661436 	 19.9549053 	 2321.7012 	 1.081 	 94.871
0.5676672 	 20.1995598 	 2669.1739 	 1.081 	 94.867
0.5691760 	 20.4547990 	 3134.1008 	 1.080 	 94.861
0.5706687 	 20.7216502 	 3726.2435 	 1.080 	 94.870
0.5721454 	 20.9784509 	 4546.2212 	 1.080 	 94.842
0.5736057 	 21.2450104 	 5632.2970 	 1.080 	 94.836
0.5750516 	 21.5222280 	 7016.0028 	 1.079 	 94.812
0.5764816 	 21.8033392 	 8876.2230 	 1.080 	 94.836
0.5778948 	 22.0995319 	 11200.5127 	 1.080 	 94.836
0.5792916 	 22.4051802 	 13925.9851 	 1.081 	 94.809
0.5806709 	 22.7132946 	 17001.4422 	 1.081 	 94.793
0.5820335 	 23.0424378 	 20661.6514 	 1.081 	 94.775
0.5833779 	 23.3755671 	 24448.2556 	 1.082 	 94.777
0.5847065 	 23.7206019 	 28885.6097 	 1.083 	 94.750
0.5860168 	 24.0822301 	 34257.9250 	 1.084 	 94.764
0.5873109 	 24.4472072 	 39106.0986 	 1.085 	 94.750
0.5885861 	 24.8313209 	 44812.9872 	 1.086 	 94.741
0.5898434 	 25.2261620 	 50997.2011 	 1.088 	 94.754
0.5910829 	 25.6226209 	 56495.0938 	 1.089 	 94.732
0.5923052 	 26.0314927 	 61849.0402 	 1.090 	 94.694
0.5935102 	 26.4420084 	 67830.8072 	 1.090 	 94.670
0.5946977 	 26.8712670 	 72090.8858 	 1.091 	 94.678
0.5958679 	 27.3141291 	 77448.8809 	 1.092 	 94.679
0.5970211 	 27.7571948 	 81821.7309 	 1.092 	 94.683
0.5981576 	 28.1924396 	 85209.2611 	 1.092 	 94.641
0.5992770 	 28.6476323 	 88909.7273 	 1.092 	 94.623
0.6003811 	 29.1091941 	 91717.1301 	 1.091 	 94.657
0.6014680 	 29.5899310 	 93783.9138 	 1.090 	 94.658
0.6025389 	 30.0691378 	 95575.1885 	 1.088 	 94.686
0.6035937 	 30.5491374 	 97069.8140 	 1.085 	 94.677
0.6046337 	 31.0504104 	 98855.1043 	 1.083 	 94.690
0.6056579 	 31.5406033 	 100755.4246 	 1.080 	 94.685
0.6066675 	 32.0668876 	 103688.2922 	 1.077 	 94.724
0.6076616 	 32.6004233 	 107495.1064 	 1.073 	 94.754
0.6086401 	 33.1385849 	 112790.6679 	 1.070 	 94.774
0.6096041 	 33.6962915 	 118823.1855 	 1.066 	 94.799
0.6105522 	 34.2648742 	 125290.0753 	 1.062 	 94.856
0.6114868 	 34.8315163 	 133827.1171 	 1.059 	 94.814
0.6124066 	 35.4277821 	 141985.5981 	 1.055 	 94.863
0.6133113 	 36.0275052 	 152874.5374 	 1.051 	 94.869
0.6142023 	 36.6507730 	 163880.3800 	 1.047 	 94.927
0.6150784 	 37.2969973 	 173308.5107 	 1.044 	 94.936
0.6159399 	 37.9373131 	 184034.1715 	 1.041 	 94.945
0.6167880 	 38.5990286 	 194819.8065 	 1.038 	 94.940
0.6176224 	 39.2910773 	 206338.3699 	 1.035 	 94.971
0.6184431 	 39.9993747 	 217412.3301 	 1.033 	 94.998
0.6192499 	 40.7096107 	 227928.4397 	 1.031 	 95.004
0.6200432 	 41.4384108 	 237468.3955 	 1.030 	 94.981
0.6208226 	 42.2089731 	 248336.9192 	 1.029 	 95.011
0.6215884 	 42.9718364 	 256205.6688 	 1.029 	 94.984
0.6223410 	 43.7717562 	 265418.8092 	 1.029 	 94.974
0.6230805 	 44.5912936 	 272894.9805 	 1.030 	 94.983
0.6238072 	 45.4050294 	 284953.8241 	 1.030 	 94.942
0.6245220 	 46.2516054 	 295125.1401 	 1.031 	 94.961
0.6252238 	 47.1256331 	 304866.5655 	 1.033 	 94.914
0.6259128 	 48.0034930 	 312107.3839 	 1.035 	 94.924
0.6265895 	 48.9055149 	 321396.3496 	 1.035 	 94.876
0.6272536 	 49.8511109 	 329876.9097 	 1.037 	 94.900
0.6279061 	 50.7858448 	 338838.3933 	 1.039 	 94.885
0.6285472 	 51.7718630 	 350476.8555 	 1.040 	 94.884
0.6291765 	 52.7602015 	 357338.9621 	 1.043 	 94.828
0.6297945 	 53.7749387 	 363762.0818 	 1.045 	 94.808
