N=100 	 R=1000000 	 s=1 	 Save [density, Z, rho_t, like/unlike, events per sweep]
0.0001343 	 1.0005121 	 1.1026 	 1.010 	 10.125
0.0132609 	 1.1625119 	 12.1843 	 0.950 	 46.824
0.0260833 	 1.1527858 	 22.8951 	 1.004 	 78.937
0.0385078 	 1.1918056 	 33.3863 	 1.013 	 88.242
0.0505258 	 1.2396252 	 43.4248 	 1.016 	 92.036
0.0621785 	 1.2921597 	 53.6282 	 1.018 	 93.790
0.0734878 	 1.3483393 	 63.7174 	 1.019 	 94.761
0.0844434 	 1.4075636 	 74.4373 	 1.020 	 95.206
0.0950828 	 1.4696113 	 85.4144 	 1.021 	 95.496
0.1054261 	 1.5338276 	 95.1157 	 1.022 	 95.664
0.1154709 	 1.6003516 	 105.6944 	 1.024 	 95.768
0.1252250 	 1.6684772 	 116.6936 	 1.025 	 95.787
0.1347227 	 1.7388841 	 126.9049 	 1.026 	 95.818
0.1439647 	 1.8103637 	 136.3287 	 1.026 	 95.901
0.1529566 	 1.8843045 	 145.4729 	 1.028 	 95.883
0.1617192 	 1.9598291 	 155.9095 	 1.030 	 95.826
0.1702448 	 2.0368601 	 166.8897 	 1.031 	 95.801
0.1785576 	 2.1158028 	 177.0935 	 1.032 	 95.776
0.1866664 	 2.1963765 	 187.5024 	 1.034 	 95.751
0.1945674 	 2.2787787 	 198.1052 	 1.034 	 95.758
0.2022795 	 2.3621833 	 210.1002 	 1.036 	 95.717
0.2098059 	 2.4479638 	 219.8074 	 1.037 	 95.732
0.2171533 	 2.5347361 	 231.2546 	 1.039 	 95.704
0.2243247 	 2.6230252 	 241.9033 	 1.040 	 95.669
0.2313310 	 2.7128103 	 251.7603 	 1.041 	 95.685
0.2381790 	 2.8042879 	 262.6852 	 1.042 	 95.647
0.2448690 	 2.8976623 	 274.7158 	 1.043 	 95.638
0.2514111 	 2.9923966 	 283.7318 	 1.044 	 95.637
0.2578117 	 3.0888711 	 293.3953 	 1.045 	 95.617
0.2640738 	 3.1858201 	 305.2328 	 1.047 	 95.599
0.2702056 	 3.2850943 	 315.5154 	 1.047 	 95.569
0.2762053 	 3.3860615 	 326.1262 	 1.049 	 95.576
0.2820786 	 3.4886408 	 336.6745 	 1.049 	 95.552
0.2878338 	 3.5925812 	 347.9411 	 1.051 	 95.550
0.2934700 	 3.6979821 	 359.5730 	 1.052 	 95.545
0.2989908 	 3.8053140 	 369.8936 	 1.053 	 95.529
0.3044018 	 3.9134196 	 379.5865 	 1.054 	 95.515
0.3097146 	 4.0221633 	 390.7845 	 1.055 	 95.482
0.3149161 	 4.1345565 	 398.3046 	 1.056 	 95.479
0.3200177 	 4.2475894 	 410.0606 	 1.057 	 95.480
0.3250285 	 4.3608958 	 423.2265 	 1.058 	 95.444
0.3299373 	 4.4777179 	 433.6855 	 1.059 	 95.441
0.3347589 	 4.5945411 	 444.9848 	 1.060 	 95.433
0.3394903 	 4.7140243 	 457.1411 	 1.061 	 95.420
0.3441381 	 4.8349421 	 467.3442 	 1.061 	 95.427
0.3486992 	 4.9556208 	 476.3678 	 1.062 	 95.392
0.3531805 	 5.0798627 	 487.1563 	 1.063 	 95.395
0.3575828 	 5.2038806 	 491.7947 	 1.064 	 95.384
0.3619048 	 5.3296525 	 506.0451 	 1.065 	 95.362
0.3661504 	 5.4583378 	 520.0783 	 1.066 	 95.343
0.3703257 	 5.5863132 	 531.6296 	 1.066 	 95.326
0.3744350 	 5.7178322 	 535.5507 	 1.066 	 95.367
0.3784723 	 5.8486369 	 545.4433 	 1.067 	 95.317
0.3824426 	 5.9806060 	 562.1397 	 1.068 	 95.330
0.3863500 	 6.1166129 	 573.8917 	 1.070 	 95.325
0.3901924 	 6.2527585 	 587.1682 	 1.071 	 95.311
0.3939720 	 6.3903477 	 596.2045 	 1.070 	 95.299
0.3976915 	 6.5293497 	 607.8922 	 1.072 	 95.310
0.4013516 	 6.6696238 	 621.7134 	 1.072 	 95.285
0.4049524 	 6.8112256 	 635.6886 	 1.073 	 95.267
0.4084983 	 6.9541361 	 645.2689 	 1.074 	 95.270
0.4119892 	 7.0989143 	 657.6343 	 1.075 	 95.253
0.4154276 	 7.2435416 	 669.6111 	 1.075 	 95.228
0.4188136 	 7.3909119 	 678.4031 	 1.075 	 95.205
0.4221497 	 7.5424514 	 688.5903 	 1.076 	 95.231
0.4254344 	 7.6918958 	 699.9667 	 1.076 	 95.239
0.4286729 	 7.8440468 	 714.1018 	 1.078 	 95.257
0.4318624 	 7.9951505 	 727.3100 	 1.078 	 95.186
0.4350039 	 8.1483787 	 738.7228 	 1.079 	 95.195
0.4381039 	 8.3045481 	 744.7403 	 1.080 	 95.195
0.4411552 	 8.4598327 	 756.7152 	 1.079 	 95.167
0.4441664 	 8.6198139 	 772.5777 	 1.079 	 95.185
0.4471341 	 8.7787677 	 784.9282 	 1.080 	 95.150
0.4500616 	 8.9401474 	 796.4629 	 1.081 	 95.165
0.4529478 	 9.1024865 	 808.6969 	 1.081 	 95.153
0.4557952 	 9.2679045 	 822.0760 	 1.081 	 95.177
0.4586026 	 9.4329163 	 833.4929 	 1.082 	 95.158
0.4613740 	 9.5989435 	 839.7386 	 1.082 	 95.126
0.4641063 	 9.7667858 	 854.2871 	 1.083 	 95.158
0.4668064 	 9.9358722 	 864.7515 	 1.083 	 95.135
0.4694708 	 10.1058869 	 873.3253 	 1.083 	 95.116
0.4721004 	 10.2812186 	 886.5273 	 1.084 	 95.145
0.4746925 	 10.4505074 	 896.7822 	 1.084 	 95.107
0.4772525 	 10.6256366 	 913.3737 	 1.084 	 95.126
0.4797818 	 10.8006149 	 922.1129 	 1.085 	 95.114
0.4822748 	 10.9770356 	 930.3644 	 1.084 	 95.095
0.4847374 	 11.1562709 	 944.8731 	 1.085 	 95.095
0.4871694 	 11.3364258 	 956.8893 	 1.085 	 95.063
0.4895705 	 11.5168541 	 969.2471 	 1.086 	 95.068
0.4919432 	 11.6989110 	 975.7449 	 1.086 	 95.071
0.4942872 	 11.8825566 	 989.4834 	 1.086 	 95.025
0.4966012 	 12.0661859 	 1006.7111 	 1.086 	 95.054
0.4988906 	 12.2570852 	 1017.9502 	 1.086 	 95.066
0.5011499 	 12.4434514 	 1028.8724 	 1.086 	 95.048
0.5033826 	 12.6345927 	 1036.8479 	 1.087 	 95.055
0.5055890 	 12.8225582 	 1048.8615 	 1.086 	 95.055
0.5077691 	 13.0154843 	 1046.9103 	 1.087 	 95.041
0.5099239 	 13.2096168 	 1058.2895 	 1.087 	 95.017
0.5120530 	 13.4048201 	 1074.0263 	 1.086 	 95.049
0.5141590 	 13.5975726 	 1079.4449 	 1.086 	 95.017
0.5162410 	 13.7952448 	 1094.4952 	 1.087 	 95.015
0.5182991 	 13.9934777 	 1107.2729 	 1.087 	 95.019
0.5203335 	 14.1966270 	 1121.8443 	 1.088 	 95.000
0.5223446 	 14.3996586 	 1124.0428 	 1.088 	 94.981
0.5243323 	 14.6036004 	 1137.3399 	 1.088 	 94.991
0.5262985 	 14.8057127 	 1150.7324 	 1.088 	 94.983
0.5282451 	 15.0161376 	 1153.2997 	 1.088 	 94.974
0.5301675 	 15.2216194 	 1163.7280 	 1.088 	 94.995
0.5320693 	 15.4321487 	 1167.4978 	 1.088 	 94.967
0.5339497 	 15.6409557 	 1184.4664 	 1.088 	 94.949
0.5358099 	 15.8544021 	 1203.9156 	 1.087 	 94.968
0.5376524 	 16.0724560 	 1218.8321 	 1.087 	 94.964
0.5394724 	 16.2845908 	 1241.3034 	 1.086 	 94.926
0.5412723 	 16.5022144 	 1268.0398 	 1.086 	 94.957
0.5430541 	 16.7118422 	 1290.4715 	 1.086 	 94.940
0.5448178 	 16.9341125 	 1317.5897 	 1.085 	 94.922
0.5465638 	 17.1618628 	 1339.4280 	 1.086 	 94.927
0.5482892 	 17.3839959 	 1358.7435 	 1.086 	 94.930
0.5499973 	 17.6033963 	 1374.4015 	 1.086 	 94.913
0.5516884 	 17.8326638 	 1418.0626 	 1.085 	 94.889
0.5533596 	 18.0628895 	 1458.2524 	 1.085 	 94.900
0.5550139 	 18.2863298 	 1516.2188 	 1.084 	 94.900
0.5566509 	 18.5240670 	 1580.7335 	 1.085 	 94.908
0.5582721 	 18.7473196 	 1673.8716 	 1.085 	 94.878
0.5598777 	 18.9807666 	 1799.8028 	 1.085 	 94.894
0.5614661 	 19.2250227 	 1947.5944 	 1.085 	 94.901
0.5630400 	 19.4588636 	 2180.4512 	 1.085 	 94.885
0.5645956 	 19.7040179 	 2496.9489 	 1.086 	 94.873
0.5661357 	 19.9416696 	 2934.0881 	 1.086 	 94.891
0.5676614 	 20.1798708 	 3586.2343 	 1.086 	 94.855
0.5691705 	 20.4306123 	 4461.9071 	 1.086 	 94.842
0.5706657 	 20.6889062 	 5720.6641 	 1.087 	 94.861
0.5721441 	 20.9466036 	 7297.7214 	 1.087 	 94.873
0.5736073 	 21.2109256 	 9319.8432 	 1.087 	 94.825
0.5750547 	 21.4784475 	 12130.8289 	 1.087 	 94.847
0.5764865 	 21.7603595 	 15804.0135 	 1.086 	 94.862
0.5779030 	 22.0444678 	 20274.8534 	 1.086 	 94.850
0.5793045 	 22.3273238 	 25928.6096 	 1.086 	 94.851
0.5806888 	 22.6293848 	 31689.0643 	 1.086 	 94.839
0.5820582 	 22.9347835 	 37829.5498 	 1.085 	 94.887
0.5834114 	 23.2554559 	 44226.5054 	 1.083 	 94.869
0.5847470 	 23.5772526 	 51230.6617 	 1.082 	 94.911
0.5860680 	 23.9035772 	 57551.8938 	 1.082 	 94.889
0.5873732 	 24.2380691 	 64760.5871 	 1.080 	 94.921
0.5886613 	 24.5806194 	 71589.6849 	 1.078 	 94.895
0.5899343 	 24.9363570 	 78126.7223 	 1.076 	 94.957
0.5911916 	 25.2861853 	 85368.0751 	 1.074 	 94.958
0.5924318 	 25.6601257 	 91889.1996 	 1.072 	 94.985
0.5936560 	 26.0309559 	 98782.9828 	 1.070 	 94.962
0.5948632 	 26.4175718 	 106960.8038 	 1.067 	 94.982
0.5960548 	 26.8129680 	 117514.8957 	 1.063 	 95.000
0.5972311 	 27.2061151 	 130936.4637 	 1.060 	 95.003
0.5983921 	 27.6121853 	 146198.9787 	 1.058 	 95.037
0.5995372 	 28.0353549 	 162766.5973 	 1.054 	 95.030
0.6006675 	 28.4678274 	 182502.9255 	 1.052 	 95.074
0.6017813 	 28.9135925 	 204254.2013 	 1.049 	 95.044
0.6028796 	 29.3838130 	 227687.5972 	 1.047 	 95.089
0.6039608 	 29.8504937 	 249179.0306 	 1.046 	 95.047
0.6050261 	 30.3464108 	 272683.0631 	 1.045 	 95.050
0.6060751 	 30.8611132 	 296273.9760 	 1.043 	 95.039
0.6071074 	 31.3932194 	 319328.2382 	 1.043 	 95.080
0.6081239 	 31.9269735 	 341202.5258 	 1.043 	 95.075
0.6091240 	 32.4818642 	 367901.3054 	 1.044 	 95.072
0.6101080 	 33.0438584 	 389365.6837 	 1.044 	 95.046
0.6110763 	 33.6337203 	 410097.4292 	 1.045 	 95.052
0.6120287 	 34.2287567 	 433359.0587 	 1.046 	 95.052
0.6129649 	 34.8303195 	 458387.1256 	 1.047 	 95.003
0.6138868 	 35.4691935 	 479377.3180 	 1.049 	 95.044
0.6147922 	 36.1122105 	 499630.5614 	 1.052 	 95.005
0.6156821 	 36.7601903 	 523874.2143 	 1.055 	 94.986
0.6165578 	 37.4317202 	 542413.5912 	 1.057 	 94.978
0.6174177 	 38.1110721 	 566180.7352 	 1.060 	 94.981
0.6182642 	 38.8136506 	 584781.1787 	 1.063 	 94.967
0.6190957 	 39.5192366 	 607545.5505 	 1.067 	 94.916
0.6199130 	 40.2630554 	 625615.5265 	 1.070 	 94.920
0.6207163 	 41.0054490 	 641976.0729 	 1.074 	 94.918
0.6215045 	 41.7653189 	 657809.3988 	 1.077 	 94.869
0.6222792 	 42.5321026 	 670635.0463 	 1.080 	 94.864
0.6230407 	 43.3395446 	 682190.3062 	 1.084 	 94.844
0.6237893 	 44.1546073 	 689663.8259 	 1.088 	 94.834
0.6245239 	 45.0031594 	 696247.6203 	 1.092 	 94.824
0.6252449 	 45.8619146 	 699982.7334 	 1.095 	 94.818
0.6259531 	 46.7328426 	 701481.3945 	 1.099 	 94.789
0.6266491 	 47.6378358 	 701981.7173 	 1.102 	 94.789
0.6273315 	 48.5549216 	 700698.1496 	 1.106 	 94.759
0.6280016 	 49.5072230 	 699554.0036 	 1.110 	 94.747
0.6286597 	 50.4535754 	 698191.9025 	 1.113 	 94.736
0.6293054 	 51.4668892 	 691373.8857 	 1.117 	 94.750
0.6299391 	 52.4823243 	 684724.9811 	 1.121 	 94.742
