N=100 	 R=1000000 	 s=1 	 Save [density, Z, rho_t, like/unlike, events per sweep]
0.0001341 	 1.0005116 	 1.1027 	 1.002 	 10.125
0.0132605 	 1.1625674 	 12.2304 	 0.950 	 46.800
0.0260953 	 1.1528291 	 22.9935 	 1.004 	 78.901
0.0385194 	 1.1919139 	 33.5636 	 1.013 	 88.254
0.0505357 	 1.2396713 	 44.0849 	 1.016 	 92.027
0.0621905 	 1.2923279 	 54.5424 	 1.018 	 93.835
0.0734871 	 1.3483491 	 64.9978 	 1.019 	 94.759
0.0844549 	 1.4078823 	 75.3177 	 1.020 	 95.258
0.0950867 	 1.4697311 	 85.8297 	 1.021 	 95.545
0.1054293 	 1.5340902 	 96.4958 	 1.022 	 95.699
0.1154672 	 1.6003414 	 106.2652 	 1.024 	 95.774
0.1252216 	 1.6686656 	 116.4798 	 1.025 	 95.806
0.1347161 	 1.7387074 	 126.1567 	 1.026 	 95.820
0.1439615 	 1.8102759 	 136.7847 	 1.027 	 95.872
0.1529518 	 1.8840143 	 147.8580 	 1.028 	 95.834
0.1617142 	 1.9598888 	 159.0799 	 1.030 	 95.848
0.1702400 	 2.0370850 	 168.5961 	 1.031 	 95.815
0.1785514 	 2.1159795 	 178.7007 	 1.032 	 95.785
0.1866515 	 2.1965894 	 189.5074 	 1.034 	 95.788
0.1945566 	 2.2781933 	 199.7211 	 1.035 	 95.733
0.2022700 	 2.3618854 	 209.3062 	 1.036 	 95.702
0.2097878 	 2.4474509 	 219.6480 	 1.037 	 95.725
0.2171300 	 2.5341240 	 228.9634 	 1.039 	 95.702
0.2243059 	 2.6227183 	 239.8396 	 1.040 	 95.691
0.2313132 	 2.7130317 	 249.0200 	 1.041 	 95.676
0.2381623 	 2.8040050 	 260.5658 	 1.042 	 95.650
0.2448583 	 2.8974229 	 271.9204 	 1.043 	 95.643
0.2514028 	 2.9917611 	 283.5618 	 1.044 	 95.597
0.2578034 	 3.0881981 	 292.5953 	 1.045 	 95.627
0.2640649 	 3.1856868 	 302.9663 	 1.047 	 95.587
0.2701931 	 3.2849371 	 315.0013 	 1.047 	 95.586
0.2761942 	 3.3865513 	 325.2342 	 1.049 	 95.590
0.2820727 	 3.4885585 	 335.3805 	 1.049 	 95.557
0.2878267 	 3.5923646 	 344.0145 	 1.051 	 95.541
0.2934638 	 3.6979947 	 355.2763 	 1.052 	 95.536
0.2989864 	 3.8054393 	 365.8701 	 1.053 	 95.529
0.3044002 	 3.9134130 	 376.0188 	 1.054 	 95.497
0.3097048 	 4.0227585 	 386.3269 	 1.055 	 95.496
0.3149068 	 4.1346933 	 396.7531 	 1.056 	 95.505
0.3200084 	 4.2467561 	 410.7444 	 1.057 	 95.457
0.3250166 	 4.3616621 	 419.3903 	 1.058 	 95.456
0.3299287 	 4.4769484 	 429.0405 	 1.058 	 95.423
0.3347487 	 4.5949079 	 440.0397 	 1.059 	 95.427
0.3394814 	 4.7132339 	 448.9107 	 1.060 	 95.395
0.3441286 	 4.8339587 	 459.1356 	 1.061 	 95.405
0.3486895 	 4.9559412 	 470.5857 	 1.062 	 95.411
0.3531713 	 5.0796743 	 480.6777 	 1.063 	 95.416
0.3575714 	 5.2037974 	 488.7382 	 1.064 	 95.385
0.3618952 	 5.3305728 	 497.5745 	 1.065 	 95.385
0.3661456 	 5.4577170 	 504.4164 	 1.066 	 95.370
0.3703230 	 5.5858986 	 513.3634 	 1.066 	 95.344
0.3744295 	 5.7164499 	 525.9506 	 1.068 	 95.330
0.3784651 	 5.8483967 	 539.6758 	 1.068 	 95.318
0.3824366 	 5.9815255 	 551.1449 	 1.069 	 95.309
0.3863403 	 6.1153654 	 561.1327 	 1.069 	 95.284
0.3901808 	 6.2526898 	 573.5861 	 1.070 	 95.289
0.3939580 	 6.3915715 	 582.8790 	 1.070 	 95.304
0.3976759 	 6.5286758 	 592.4112 	 1.072 	 95.294
0.4013345 	 6.6691581 	 601.9853 	 1.073 	 95.269
0.4049388 	 6.8116441 	 610.8789 	 1.073 	 95.271
0.4084865 	 6.9520672 	 617.5755 	 1.072 	 95.252
0.4119773 	 7.0986779 	 628.2268 	 1.074 	 95.236
0.4154148 	 7.2445325 	 639.9784 	 1.075 	 95.255
0.4188010 	 7.3910827 	 653.3811 	 1.075 	 95.220
0.4221355 	 7.5409255 	 665.6742 	 1.076 	 95.221
0.4254227 	 7.6908256 	 675.9516 	 1.076 	 95.220
0.4286593 	 7.8424277 	 683.5333 	 1.077 	 95.232
0.4318520 	 7.9947398 	 694.8705 	 1.078 	 95.184
0.4349962 	 8.1492621 	 706.2812 	 1.077 	 95.201
0.4380947 	 8.3049126 	 716.8090 	 1.079 	 95.215
0.4411485 	 8.4619005 	 727.6512 	 1.079 	 95.180
0.4441584 	 8.6201983 	 734.3019 	 1.080 	 95.185
0.4471273 	 8.7785930 	 746.6566 	 1.080 	 95.156
0.4500536 	 8.9409108 	 758.2819 	 1.080 	 95.152
0.4529406 	 9.1039070 	 768.7045 	 1.081 	 95.163
0.4557879 	 9.2669288 	 778.4267 	 1.082 	 95.179
0.4585968 	 9.4295402 	 789.0099 	 1.082 	 95.151
0.4613668 	 9.5961687 	 802.5926 	 1.082 	 95.120
0.4640999 	 9.7647085 	 821.7668 	 1.083 	 95.128
0.4667993 	 9.9365225 	 833.2287 	 1.083 	 95.148
0.4694596 	 10.1033467 	 847.0942 	 1.083 	 95.108
0.4720864 	 10.2786773 	 852.8951 	 1.085 	 95.145
0.4746799 	 10.4495888 	 867.5819 	 1.084 	 95.121
0.4772407 	 10.6263452 	 876.9505 	 1.084 	 95.133
0.4797699 	 10.7983968 	 890.3341 	 1.085 	 95.100
0.4822648 	 10.9766308 	 900.8931 	 1.085 	 95.079
0.4847293 	 11.1543220 	 910.6585 	 1.084 	 95.072
0.4871622 	 11.3347957 	 920.1298 	 1.085 	 95.086
0.4895643 	 11.5154934 	 927.4192 	 1.086 	 95.069
0.4919381 	 11.6980665 	 933.1033 	 1.085 	 95.081
0.4942813 	 11.8841137 	 943.5579 	 1.085 	 95.079
0.4965958 	 12.0682686 	 955.7277 	 1.086 	 95.048
0.4988840 	 12.2561100 	 960.1485 	 1.086 	 95.069
0.5011438 	 12.4439352 	 971.2809 	 1.087 	 95.047
0.5033764 	 12.6316329 	 984.0806 	 1.087 	 95.023
0.5055827 	 12.8265885 	 993.4974 	 1.087 	 95.066
0.5077624 	 13.0148771 	 1006.2451 	 1.086 	 95.041
0.5099178 	 13.2088305 	 1019.8377 	 1.086 	 95.042
0.5120475 	 13.4014761 	 1035.7208 	 1.087 	 95.011
0.5141520 	 13.6014135 	 1038.4684 	 1.087 	 95.023
0.5162332 	 13.7980619 	 1053.8262 	 1.088 	 95.002
0.5182887 	 13.9980969 	 1064.4037 	 1.087 	 95.013
0.5203234 	 14.1962322 	 1074.9879 	 1.087 	 95.007
0.5223338 	 14.4011289 	 1087.9957 	 1.087 	 95.014
0.5243218 	 14.6048469 	 1099.1490 	 1.087 	 95.011
0.5262884 	 14.8087783 	 1109.8449 	 1.087 	 94.990
0.5282320 	 15.0178059 	 1127.0942 	 1.088 	 94.982
0.5301535 	 15.2261549 	 1141.0198 	 1.088 	 95.009
0.5320542 	 15.4310100 	 1159.1699 	 1.088 	 94.986
0.5339340 	 15.6452759 	 1167.0146 	 1.088 	 94.973
0.5357929 	 15.8601271 	 1181.2271 	 1.089 	 94.959
0.5376352 	 16.0713193 	 1199.2636 	 1.089 	 94.952
0.5394553 	 16.2809110 	 1218.7423 	 1.089 	 94.950
0.5412564 	 16.5014588 	 1238.0807 	 1.088 	 94.960
0.5430390 	 16.7209684 	 1254.4907 	 1.088 	 94.945
0.5448010 	 16.9346548 	 1281.7698 	 1.088 	 94.935
0.5465437 	 17.1620577 	 1318.9812 	 1.088 	 94.947
0.5482699 	 17.3792366 	 1352.1185 	 1.088 	 94.928
0.5499768 	 17.6017577 	 1376.2777 	 1.087 	 94.915
0.5516672 	 17.8316186 	 1418.9287 	 1.087 	 94.929
0.5533391 	 18.0567188 	 1456.0939 	 1.088 	 94.924
0.5549959 	 18.2887935 	 1499.6536 	 1.087 	 94.921
0.5566348 	 18.5144299 	 1553.6940 	 1.087 	 94.919
0.5582564 	 18.7470975 	 1624.6020 	 1.087 	 94.873
0.5598606 	 18.9854282 	 1719.8282 	 1.086 	 94.881
0.5614487 	 19.2244100 	 1822.8711 	 1.086 	 94.888
0.5630215 	 19.4585343 	 2003.6854 	 1.085 	 94.851
0.5645774 	 19.7023460 	 2226.8694 	 1.085 	 94.873
0.5661184 	 19.9429832 	 2543.0759 	 1.085 	 94.850
0.5676439 	 20.1950232 	 2952.8059 	 1.084 	 94.860
0.5691529 	 20.4418116 	 3509.8491 	 1.084 	 94.852
0.5706467 	 20.6902773 	 4185.8758 	 1.083 	 94.846
0.5721254 	 20.9553069 	 5078.2194 	 1.084 	 94.822
0.5735887 	 21.2210709 	 6118.2740 	 1.083 	 94.819
0.5750356 	 21.4898706 	 7319.1133 	 1.083 	 94.792
0.5764661 	 21.7784241 	 8660.0821 	 1.082 	 94.791
0.5778817 	 22.0730679 	 10134.4023 	 1.081 	 94.785
0.5792795 	 22.3771218 	 11744.6727 	 1.081 	 94.796
0.5806615 	 22.6857053 	 13649.0369 	 1.080 	 94.748
0.5820272 	 23.0091355 	 15502.6258 	 1.081 	 94.731
0.5833751 	 23.3426690 	 17813.5047 	 1.081 	 94.735
0.5847058 	 23.6723269 	 20440.5465 	 1.080 	 94.732
0.5860198 	 24.0228345 	 23437.5092 	 1.081 	 94.718
0.5873155 	 24.3713243 	 27441.7797 	 1.081 	 94.729
0.5885962 	 24.7278644 	 32105.4217 	 1.081 	 94.727
0.5898598 	 25.0948276 	 38600.3083 	 1.082 	 94.735
0.5911084 	 25.4579360 	 47429.9568 	 1.081 	 94.752
0.5923394 	 25.8369348 	 58523.3330 	 1.082 	 94.757
0.5935543 	 26.1978582 	 75299.3072 	 1.082 	 94.743
0.5947547 	 26.5856359 	 96250.5267 	 1.083 	 94.785
0.5959392 	 26.9737251 	 120567.1931 	 1.083 	 94.772
0.5971078 	 27.3727335 	 150031.0766 	 1.083 	 94.798
0.5982617 	 27.7917612 	 182988.9034 	 1.084 	 94.819
0.5993996 	 28.2212348 	 214947.7418 	 1.084 	 94.842
0.6005210 	 28.6601621 	 249283.2128 	 1.086 	 94.834
0.6016270 	 29.1146436 	 282414.9381 	 1.087 	 94.843
0.6027164 	 29.5787724 	 315330.0364 	 1.088 	 94.858
0.6037896 	 30.0738816 	 346456.5591 	 1.089 	 94.879
0.6048465 	 30.5928456 	 373368.3717 	 1.091 	 94.890
0.6058871 	 31.1088602 	 395100.6572 	 1.092 	 94.857
0.6069110 	 31.6515795 	 414697.5250 	 1.093 	 94.852
0.6079190 	 32.2084661 	 428798.2190 	 1.094 	 94.866
0.6089093 	 32.7721293 	 440870.5336 	 1.094 	 94.885
0.6098846 	 33.3692412 	 448552.9952 	 1.095 	 94.909
0.6108431 	 33.9488372 	 454201.6434 	 1.095 	 94.917
0.6117867 	 34.5549492 	 456687.5127 	 1.095 	 94.909
0.6127146 	 35.1592080 	 457737.9605 	 1.094 	 94.942
0.6136277 	 35.7631064 	 458832.1119 	 1.092 	 94.941
0.6145258 	 36.3837531 	 460155.6179 	 1.090 	 94.987
0.6154103 	 36.9941422 	 460685.8344 	 1.087 	 94.967
0.6162801 	 37.6120206 	 462208.6988 	 1.084 	 94.995
0.6171372 	 38.2135460 	 463725.6374 	 1.080 	 95.011
0.6179822 	 38.8256864 	 466560.4795 	 1.076 	 95.008
0.6188142 	 39.4402141 	 470005.0741 	 1.071 	 95.037
0.6196342 	 40.0650565 	 473985.7847 	 1.066 	 95.052
0.6204420 	 40.6683506 	 477585.7980 	 1.061 	 95.008
0.6212390 	 41.2982634 	 482744.2450 	 1.057 	 95.029
0.6220242 	 41.9437947 	 487084.1604 	 1.053 	 94.962
0.6227981 	 42.5985272 	 493229.4775 	 1.050 	 94.939
0.6235603 	 43.2628697 	 502901.4017 	 1.048 	 94.921
0.6243114 	 43.9523734 	 515411.2201 	 1.046 	 94.867
0.6250510 	 44.6773823 	 534996.0599 	 1.046 	 94.811
0.6257796 	 45.3963866 	 560670.8534 	 1.045 	 94.767
0.6264974 	 46.1504648 	 592570.5230 	 1.047 	 94.683
0.6272038 	 46.9041596 	 632250.3948 	 1.047 	 94.619
0.6278987 	 47.7059084 	 673075.7687 	 1.048 	 94.578
0.6285833 	 48.4996296 	 719346.1556 	 1.050 	 94.504
0.6292565 	 49.3153798 	 764726.1913 	 1.052 	 94.425
0.6299190 	 50.1737467 	 805585.7747 	 1.053 	 94.403
