N=100 	 R=1000000 	 s=1 	 Save [density, Z, rho_t, like/unlike, events per sweep]
0.0001346 	 1.0005120 	 1.1027 	 1.004 	 10.125
0.0132607 	 1.1624224 	 12.2113 	 0.951 	 46.857
0.0260997 	 1.1529347 	 22.8803 	 1.004 	 78.922
0.0385178 	 1.1918633 	 33.4904 	 1.012 	 88.263
0.0505216 	 1.2395620 	 44.0927 	 1.016 	 92.011
0.0621692 	 1.2921764 	 54.6921 	 1.018 	 93.795
0.0734725 	 1.3482125 	 65.1859 	 1.019 	 94.773
0.0844428 	 1.4076124 	 75.0390 	 1.020 	 95.226
0.0950910 	 1.4696433 	 84.8790 	 1.021 	 95.517
0.1054251 	 1.5338299 	 95.6740 	 1.022 	 95.650
0.1154624 	 1.6002379 	 106.3029 	 1.023 	 95.751
0.1252241 	 1.6686634 	 116.4482 	 1.025 	 95.814
0.1347236 	 1.7387553 	 127.2796 	 1.026 	 95.803
0.1439571 	 1.8102103 	 137.8392 	 1.027 	 95.857
0.1529415 	 1.8840308 	 147.3365 	 1.028 	 95.827
0.1616981 	 1.9596462 	 156.9015 	 1.030 	 95.808
0.1702336 	 2.0370038 	 166.4104 	 1.031 	 95.829
0.1785445 	 2.1161885 	 175.5036 	 1.032 	 95.813
0.1866501 	 2.1959615 	 185.5941 	 1.034 	 95.732
0.1945585 	 2.2786021 	 195.2598 	 1.035 	 95.774
0.2022713 	 2.3622797 	 205.5816 	 1.036 	 95.731
0.2097994 	 2.4477148 	 215.8259 	 1.038 	 95.735
0.2171427 	 2.5341660 	 225.2457 	 1.038 	 95.715
0.2243110 	 2.6228752 	 236.3048 	 1.040 	 95.691
0.2313208 	 2.7134326 	 246.9664 	 1.041 	 95.715
0.2381711 	 2.8045874 	 257.3459 	 1.042 	 95.653
0.2448670 	 2.8976435 	 267.0497 	 1.044 	 95.632
0.2514133 	 2.9918974 	 277.3017 	 1.045 	 95.597
0.2578140 	 3.0888728 	 286.4653 	 1.046 	 95.619
0.2640809 	 3.1862496 	 295.7333 	 1.047 	 95.590
0.2702104 	 3.2855787 	 307.9095 	 1.047 	 95.587
0.2762120 	 3.3860075 	 318.2079 	 1.049 	 95.554
0.2820897 	 3.4888651 	 327.2099 	 1.050 	 95.528
0.2878445 	 3.5926430 	 338.5591 	 1.050 	 95.552
0.2934772 	 3.6985535 	 350.8408 	 1.052 	 95.535
0.2989957 	 3.8049213 	 360.8800 	 1.053 	 95.504
0.3044067 	 3.9141114 	 373.6829 	 1.054 	 95.528
0.3097097 	 4.0233356 	 384.6908 	 1.055 	 95.493
0.3149135 	 4.1347985 	 394.8109 	 1.056 	 95.500
0.3200169 	 4.2479540 	 406.4860 	 1.056 	 95.464
0.3250217 	 4.3623004 	 417.3396 	 1.058 	 95.475
0.3299354 	 4.4781151 	 427.2286 	 1.059 	 95.440
0.3347587 	 4.5953644 	 439.8596 	 1.059 	 95.426
0.3394883 	 4.7133360 	 450.6301 	 1.061 	 95.398
0.3441369 	 4.8349145 	 461.7168 	 1.062 	 95.443
0.3486995 	 4.9553171 	 470.3579 	 1.062 	 95.395
0.3531813 	 5.0796987 	 483.8775 	 1.063 	 95.384
0.3575800 	 5.2035544 	 496.5341 	 1.064 	 95.362
0.3619044 	 5.3301270 	 507.4518 	 1.065 	 95.362
0.3661527 	 5.4582062 	 518.9290 	 1.066 	 95.367
0.3703326 	 5.5867201 	 528.6751 	 1.066 	 95.335
0.3744388 	 5.7161913 	 539.6057 	 1.067 	 95.342
0.3784735 	 5.8472158 	 548.1518 	 1.068 	 95.315
0.3824437 	 5.9816569 	 559.6760 	 1.069 	 95.314
0.3863496 	 6.1168786 	 570.0405 	 1.070 	 95.310
0.3901909 	 6.2522014 	 577.7263 	 1.070 	 95.299
0.3939701 	 6.3884889 	 585.2317 	 1.071 	 95.281
0.3976887 	 6.5294285 	 593.7584 	 1.071 	 95.270
0.4013488 	 6.6703916 	 604.7567 	 1.072 	 95.290
0.4049507 	 6.8103664 	 617.6993 	 1.073 	 95.252
0.4084998 	 6.9565695 	 629.5197 	 1.074 	 95.263
0.4119925 	 7.0992488 	 645.1174 	 1.074 	 95.239
0.4154304 	 7.2453002 	 654.6243 	 1.074 	 95.241
0.4188158 	 7.3917680 	 667.6264 	 1.075 	 95.223
0.4221513 	 7.5415635 	 679.5245 	 1.077 	 95.229
0.4254355 	 7.6911183 	 689.9879 	 1.077 	 95.214
0.4286723 	 7.8445751 	 699.2715 	 1.078 	 95.228
0.4318630 	 7.9957915 	 715.3092 	 1.077 	 95.224
0.4350069 	 8.1487045 	 727.8437 	 1.078 	 95.175
0.4381044 	 8.3037873 	 731.4324 	 1.079 	 95.181
0.4411604 	 8.4622231 	 742.4964 	 1.079 	 95.178
0.4441702 	 8.6196941 	 751.6369 	 1.079 	 95.177
0.4471369 	 8.7804478 	 764.6920 	 1.080 	 95.187
0.4500643 	 8.9410012 	 770.6161 	 1.081 	 95.158
0.4529524 	 9.1025392 	 776.2714 	 1.081 	 95.155
0.4558009 	 9.2657851 	 790.5554 	 1.081 	 95.129
0.4586085 	 9.4313589 	 804.7885 	 1.082 	 95.134
0.4613773 	 9.5962746 	 814.7946 	 1.082 	 95.110
0.4641122 	 9.7651095 	 819.4527 	 1.083 	 95.109
0.4668102 	 9.9349056 	 823.8450 	 1.083 	 95.113
0.4694724 	 10.1039252 	 834.7894 	 1.084 	 95.100
0.4720995 	 10.2740120 	 844.2862 	 1.084 	 95.091
0.4746928 	 10.4495553 	 857.6510 	 1.084 	 95.109
0.4772532 	 10.6267009 	 862.8718 	 1.084 	 95.116
0.4797816 	 10.7994694 	 867.0721 	 1.084 	 95.086
0.4822748 	 10.9763213 	 878.6131 	 1.084 	 95.061
0.4847384 	 11.1565627 	 882.3284 	 1.085 	 95.086
0.4871705 	 11.3356303 	 894.7622 	 1.085 	 95.090
0.4895725 	 11.5182208 	 901.7432 	 1.086 	 95.079
0.4919463 	 11.6993353 	 917.1970 	 1.086 	 95.066
0.4942898 	 11.8835838 	 928.4309 	 1.086 	 95.074
0.4966041 	 12.0688157 	 945.3881 	 1.086 	 95.069
0.4988913 	 12.2579531 	 953.6715 	 1.086 	 95.060
0.5011509 	 12.4447295 	 963.8604 	 1.087 	 95.060
0.5033855 	 12.6347514 	 977.0467 	 1.086 	 95.079
0.5055915 	 12.8227054 	 989.2024 	 1.086 	 95.019
0.5077727 	 13.0155101 	 1001.5925 	 1.087 	 95.028
0.5099274 	 13.2068106 	 1013.1365 	 1.087 	 95.038
0.5120573 	 13.4024647 	 1022.4118 	 1.087 	 95.023
0.5141618 	 13.5972516 	 1034.2763 	 1.087 	 95.000
0.5162429 	 13.7965651 	 1049.3469 	 1.087 	 94.989
0.5183006 	 13.9986766 	 1068.1056 	 1.088 	 95.038
0.5203355 	 14.1987963 	 1079.1545 	 1.088 	 94.978
0.5223458 	 14.4051266 	 1086.2284 	 1.087 	 95.029
0.5243325 	 14.6035035 	 1100.0723 	 1.088 	 94.989
0.5262977 	 14.8094577 	 1110.7547 	 1.088 	 95.035
0.5282404 	 15.0136729 	 1122.4427 	 1.089 	 94.982
0.5301651 	 15.2192127 	 1136.9006 	 1.088 	 95.000
0.5320664 	 15.4231259 	 1149.0329 	 1.088 	 94.970
0.5339471 	 15.6428423 	 1156.1010 	 1.087 	 94.963
0.5358070 	 15.8544243 	 1157.9056 	 1.087 	 94.996
0.5376467 	 16.0650252 	 1168.0416 	 1.086 	 94.967
0.5394680 	 16.2817060 	 1190.6580 	 1.086 	 94.938
0.5412700 	 16.5029407 	 1206.3487 	 1.087 	 94.969
0.5430525 	 16.7181756 	 1220.5276 	 1.087 	 94.952
0.5448158 	 16.9335564 	 1247.6308 	 1.087 	 94.933
0.5465601 	 17.1549261 	 1267.7961 	 1.087 	 94.911
0.5482866 	 17.3786334 	 1289.2294 	 1.087 	 94.914
0.5499935 	 17.6038596 	 1319.0972 	 1.087 	 94.937
0.5516848 	 17.8291968 	 1354.2840 	 1.087 	 94.933
0.5533574 	 18.0535738 	 1394.5552 	 1.087 	 94.919
0.5550135 	 18.2816901 	 1455.9985 	 1.087 	 94.887
0.5566513 	 18.5048454 	 1547.4328 	 1.087 	 94.874
0.5582732 	 18.7443476 	 1650.5495 	 1.087 	 94.854
0.5598794 	 18.9838154 	 1808.4197 	 1.087 	 94.900
0.5614684 	 19.2070993 	 2007.4192 	 1.088 	 94.864
0.5630407 	 19.4530979 	 2314.8673 	 1.089 	 94.882
0.5645994 	 19.6875063 	 2714.1000 	 1.090 	 94.860
0.5661416 	 19.9286080 	 3204.4592 	 1.090 	 94.851
0.5676667 	 20.1689899 	 3928.0589 	 1.091 	 94.853
0.5691795 	 20.4121142 	 4868.5243 	 1.092 	 94.836
0.5706767 	 20.6496789 	 5909.5896 	 1.093 	 94.784
0.5721584 	 20.9152472 	 6978.2644 	 1.094 	 94.790
0.5736236 	 21.1819334 	 8404.7242 	 1.095 	 94.802
0.5750731 	 21.4558923 	 9991.3169 	 1.097 	 94.794
0.5765074 	 21.7305603 	 11867.3261 	 1.096 	 94.782
0.5779256 	 22.0216960 	 13653.6469 	 1.097 	 94.767
0.5793279 	 22.3108887 	 15940.1877 	 1.098 	 94.716
0.5807146 	 22.6151495 	 18914.9236 	 1.098 	 94.724
0.5820852 	 22.9332981 	 22203.3826 	 1.098 	 94.743
0.5834383 	 23.2463721 	 26158.2829 	 1.098 	 94.689
0.5847751 	 23.5858329 	 30597.0781 	 1.098 	 94.699
0.5860944 	 23.9246822 	 35456.3054 	 1.099 	 94.690
0.5873973 	 24.2808646 	 41093.5491 	 1.099 	 94.678
0.5886835 	 24.6397484 	 47669.5955 	 1.098 	 94.664
0.5899522 	 25.0295503 	 54197.4993 	 1.097 	 94.687
0.5912025 	 25.4168422 	 61454.7238 	 1.097 	 94.650
0.5924360 	 25.8164048 	 70236.9948 	 1.096 	 94.645
0.5936517 	 26.2381693 	 78498.5229 	 1.095 	 94.628
0.5948495 	 26.6600997 	 87477.0749 	 1.095 	 94.617
0.5960304 	 27.0996091 	 97021.9263 	 1.095 	 94.605
0.5971930 	 27.5515643 	 104178.3497 	 1.095 	 94.604
0.5983371 	 28.0208116 	 112531.2508 	 1.095 	 94.628
0.5994644 	 28.5054759 	 120118.7708 	 1.095 	 94.606
0.6005742 	 28.9878975 	 125443.0994 	 1.095 	 94.554
0.6016669 	 29.4925077 	 131762.2625 	 1.096 	 94.562
0.6027420 	 30.0042448 	 136931.7684 	 1.097 	 94.567
0.6038000 	 30.5258857 	 139867.7751 	 1.097 	 94.495
0.6048399 	 31.0690375 	 141943.0241 	 1.099 	 94.544
0.6058632 	 31.6281791 	 143318.4984 	 1.101 	 94.541
0.6068700 	 32.1779087 	 145172.4443 	 1.102 	 94.480
0.6078606 	 32.7438286 	 145668.8541 	 1.103 	 94.496
0.6088342 	 33.3223130 	 144944.2958 	 1.105 	 94.476
0.6097917 	 33.9155053 	 144977.0260 	 1.108 	 94.482
0.6107344 	 34.4994852 	 144123.5499 	 1.109 	 94.437
0.6116623 	 35.0937962 	 144140.2655 	 1.113 	 94.444
0.6125751 	 35.6926993 	 144522.4980 	 1.116 	 94.450
0.6134731 	 36.2984926 	 145656.6028 	 1.120 	 94.439
0.6143566 	 36.9302403 	 147751.2755 	 1.124 	 94.424
0.6152272 	 37.5477955 	 151963.7969 	 1.128 	 94.423
0.6160834 	 38.1760302 	 158386.2474 	 1.132 	 94.415
0.6169271 	 38.8300948 	 166132.7278 	 1.137 	 94.445
0.6177571 	 39.4799615 	 176153.9729 	 1.141 	 94.438
0.6185747 	 40.1402328 	 187976.8960 	 1.146 	 94.425
0.6193791 	 40.8144252 	 200867.2062 	 1.149 	 94.432
0.6201705 	 41.5187728 	 215577.3980 	 1.154 	 94.442
0.6209493 	 42.2333503 	 229183.2744 	 1.157 	 94.456
0.6217155 	 42.9613221 	 242193.8868 	 1.159 	 94.430
0.6224694 	 43.7270499 	 253457.3195 	 1.161 	 94.461
0.6232108 	 44.4986483 	 264032.0945 	 1.161 	 94.463
0.6239398 	 45.2852540 	 272065.2887 	 1.161 	 94.443
0.6246570 	 46.0820288 	 277300.3082 	 1.157 	 94.407
0.6253616 	 46.9261183 	 281643.1010 	 1.153 	 94.442
0.6260539 	 47.7598459 	 285911.3319 	 1.149 	 94.418
0.6267349 	 48.6213332 	 289871.7735 	 1.142 	 94.401
0.6274042 	 49.4836001 	 293778.2942 	 1.135 	 94.384
0.6280621 	 50.3631015 	 300834.5735 	 1.126 	 94.362
0.6287094 	 51.2606153 	 313918.2890 	 1.116 	 94.368
0.6293458 	 52.1722361 	 330734.2595 	 1.106 	 94.355
0.6299715 	 53.0762566 	 355446.4567 	 1.095 	 94.322
