N=100 	 R=1000000 	 s=1 	 Save [density, Z, rho_t, like/unlike, events per sweep]
0.0001346 	 1.0005095 	 1.1027 	 1.008 	 10.124
0.0132666 	 1.1624918 	 12.2247 	 0.950 	 46.845
0.0260967 	 1.1529201 	 22.7364 	 1.004 	 78.938
0.0385204 	 1.1919411 	 33.2436 	 1.014 	 88.283
0.0505348 	 1.2396783 	 43.9866 	 1.016 	 92.023
0.0621858 	 1.2922669 	 54.5048 	 1.017 	 93.792
0.0734845 	 1.3482964 	 65.2462 	 1.019 	 94.740
0.0844460 	 1.4078698 	 76.2875 	 1.020 	 95.241
0.0950868 	 1.4695921 	 86.9804 	 1.021 	 95.493
0.1054158 	 1.5337769 	 96.6399 	 1.022 	 95.660
0.1154597 	 1.6002166 	 106.1151 	 1.023 	 95.768
0.1252256 	 1.6684209 	 116.4260 	 1.025 	 95.773
0.1347213 	 1.7386596 	 126.8568 	 1.026 	 95.842
0.1439615 	 1.8100921 	 136.9874 	 1.027 	 95.862
0.1529513 	 1.8840912 	 147.3487 	 1.028 	 95.846
0.1617092 	 1.9596858 	 157.5926 	 1.030 	 95.804
0.1702393 	 2.0370551 	 169.8518 	 1.031 	 95.796
0.1785585 	 2.1161064 	 181.1328 	 1.032 	 95.800
0.1866668 	 2.1965429 	 191.8301 	 1.033 	 95.772
0.1945666 	 2.2785455 	 201.8744 	 1.035 	 95.733
0.2022753 	 2.3624316 	 213.3790 	 1.036 	 95.752
0.2098067 	 2.4473375 	 224.2154 	 1.038 	 95.694
0.2171495 	 2.5343196 	 234.9153 	 1.038 	 95.704
0.2243218 	 2.6226410 	 244.4797 	 1.040 	 95.676
0.2313237 	 2.7125966 	 256.4234 	 1.041 	 95.666
0.2381723 	 2.8043731 	 267.5092 	 1.042 	 95.670
0.2448690 	 2.8980789 	 279.0469 	 1.043 	 95.654
0.2514173 	 2.9922147 	 290.4628 	 1.044 	 95.643
0.2578213 	 3.0890467 	 300.7275 	 1.045 	 95.622
0.2640812 	 3.1861235 	 309.1409 	 1.047 	 95.612
0.2702090 	 3.2854174 	 319.9682 	 1.048 	 95.565
0.2762050 	 3.3864952 	 328.9299 	 1.048 	 95.575
0.2820772 	 3.4888333 	 339.6176 	 1.049 	 95.556
0.2878342 	 3.5927017 	 353.9224 	 1.051 	 95.540
0.2934725 	 3.6983474 	 363.8111 	 1.052 	 95.526
0.2989924 	 3.8041306 	 373.8605 	 1.053 	 95.508
0.3044052 	 3.9133943 	 384.2067 	 1.054 	 95.511
0.3097138 	 4.0235230 	 394.7114 	 1.055 	 95.521
0.3149132 	 4.1343469 	 405.9409 	 1.056 	 95.474
0.3200181 	 4.2470107 	 417.1286 	 1.057 	 95.446
0.3250265 	 4.3618055 	 432.0944 	 1.058 	 95.442
0.3299394 	 4.4769727 	 440.0182 	 1.059 	 95.416
0.3347613 	 4.5947507 	 455.3836 	 1.060 	 95.433
0.3394933 	 4.7141219 	 466.8639 	 1.061 	 95.420
0.3441403 	 4.8347776 	 478.4772 	 1.062 	 95.403
0.3487041 	 4.9560935 	 493.9442 	 1.062 	 95.407
0.3531804 	 5.0785238 	 506.8451 	 1.063 	 95.403
0.3575790 	 5.2032594 	 519.9724 	 1.064 	 95.361
0.3619047 	 5.3295031 	 527.3673 	 1.065 	 95.368
0.3661555 	 5.4583687 	 536.1995 	 1.065 	 95.396
0.3703318 	 5.5869165 	 547.3203 	 1.067 	 95.346
0.3744424 	 5.7166731 	 557.8256 	 1.067 	 95.351
0.3784820 	 5.8484696 	 567.1670 	 1.069 	 95.314
0.3824556 	 5.9813097 	 575.2452 	 1.069 	 95.321
0.3863614 	 6.1162339 	 588.3526 	 1.069 	 95.302
0.3902018 	 6.2521483 	 597.6699 	 1.071 	 95.288
0.3939778 	 6.3916611 	 605.0692 	 1.071 	 95.285
0.3976962 	 6.5292340 	 620.2524 	 1.071 	 95.276
0.4013544 	 6.6694244 	 628.6606 	 1.072 	 95.265
0.4049564 	 6.8120021 	 643.3939 	 1.073 	 95.275
0.4085007 	 6.9549498 	 657.5310 	 1.073 	 95.259
0.4119886 	 7.0967403 	 675.3129 	 1.075 	 95.254
0.4154303 	 7.2443951 	 688.8618 	 1.075 	 95.250
0.4188162 	 7.3921670 	 698.9967 	 1.076 	 95.227
0.4221512 	 7.5410407 	 700.6577 	 1.076 	 95.221
0.4254364 	 7.6910039 	 709.7366 	 1.076 	 95.235
0.4286745 	 7.8432243 	 724.5585 	 1.077 	 95.210
0.4318651 	 7.9945189 	 739.7700 	 1.077 	 95.203
0.4350085 	 8.1496758 	 759.3350 	 1.079 	 95.197
0.4381066 	 8.3050457 	 769.9073 	 1.079 	 95.196
0.4411619 	 8.4617686 	 783.0141 	 1.079 	 95.170
0.4441716 	 8.6185201 	 792.8995 	 1.080 	 95.164
0.4471398 	 8.7812282 	 802.5392 	 1.080 	 95.177
0.4500669 	 8.9402356 	 811.3479 	 1.080 	 95.159
0.4529548 	 9.1032547 	 817.8925 	 1.081 	 95.172
0.4558026 	 9.2693626 	 822.0887 	 1.082 	 95.163
0.4586116 	 9.4315886 	 831.9613 	 1.082 	 95.149
0.4613811 	 9.5996849 	 841.6379 	 1.083 	 95.151
0.4641169 	 9.7648695 	 850.6881 	 1.083 	 95.097
0.4668164 	 9.9361493 	 856.0626 	 1.084 	 95.143
0.4694797 	 10.1057159 	 863.0855 	 1.084 	 95.110
0.4721078 	 10.2772381 	 874.1456 	 1.084 	 95.108
0.4747006 	 10.4512596 	 884.3808 	 1.084 	 95.113
0.4772596 	 10.6257379 	 895.0025 	 1.085 	 95.095
0.4797855 	 10.8007282 	 903.7825 	 1.085 	 95.095
0.4822829 	 10.9773773 	 916.5173 	 1.085 	 95.079
0.4847448 	 11.1558813 	 921.4823 	 1.085 	 95.066
0.4871791 	 11.3335411 	 937.5686 	 1.086 	 95.052
0.4895804 	 11.5165124 	 943.7053 	 1.086 	 95.055
0.4919534 	 11.7017193 	 955.4999 	 1.087 	 95.049
0.4942980 	 11.8828897 	 963.7359 	 1.086 	 95.063
0.4966127 	 12.0720978 	 973.0183 	 1.087 	 95.074
0.4988991 	 12.2580286 	 985.2609 	 1.086 	 95.080
0.5011587 	 12.4428926 	 998.3883 	 1.087 	 95.017
0.5033942 	 12.6357623 	 1009.8318 	 1.088 	 95.061
0.5056014 	 12.8253462 	 1017.5215 	 1.087 	 95.031
0.5077817 	 13.0170926 	 1023.1942 	 1.088 	 95.032
0.5099378 	 13.2142162 	 1029.5611 	 1.088 	 95.039
0.5120675 	 13.4062814 	 1044.5056 	 1.088 	 95.020
0.5141741 	 13.5991666 	 1055.0057 	 1.088 	 94.972
0.5162539 	 13.7975605 	 1068.4308 	 1.088 	 95.015
0.5183120 	 13.9996596 	 1075.1424 	 1.088 	 95.008
0.5203453 	 14.1986437 	 1092.6227 	 1.088 	 95.002
0.5223558 	 14.4000433 	 1104.2620 	 1.087 	 94.988
0.5243444 	 14.6065101 	 1105.6124 	 1.088 	 95.011
0.5263105 	 14.8113386 	 1118.3155 	 1.088 	 94.998
0.5282548 	 15.0170242 	 1132.6593 	 1.088 	 94.969
0.5301774 	 15.2266930 	 1144.8485 	 1.089 	 95.013
0.5320797 	 15.4353357 	 1163.2841 	 1.088 	 94.978
0.5339592 	 15.6449652 	 1181.5570 	 1.088 	 94.964
0.5358178 	 15.8545865 	 1209.6245 	 1.088 	 94.932
0.5376581 	 16.0741132 	 1222.5393 	 1.088 	 94.965
0.5394785 	 16.2856405 	 1247.4968 	 1.088 	 94.943
0.5412792 	 16.5015308 	 1263.9145 	 1.088 	 94.931
0.5430599 	 16.7209664 	 1272.4790 	 1.088 	 94.955
0.5448241 	 16.9370431 	 1292.5419 	 1.088 	 94.928
0.5465681 	 17.1590708 	 1316.8341 	 1.088 	 94.941
0.5482945 	 17.3823875 	 1349.0312 	 1.088 	 94.929
0.5500036 	 17.6063850 	 1392.7122 	 1.087 	 94.900
0.5516924 	 17.8336931 	 1441.2184 	 1.087 	 94.950
0.5533658 	 18.0578530 	 1493.0269 	 1.086 	 94.938
0.5550214 	 18.2856113 	 1562.1587 	 1.085 	 94.913
0.5566606 	 18.5167541 	 1628.3028 	 1.085 	 94.908
0.5582819 	 18.7446528 	 1735.1389 	 1.084 	 94.912
0.5598876 	 18.9783284 	 1866.8302 	 1.085 	 94.908
0.5614759 	 19.2109774 	 2051.5549 	 1.084 	 94.901
0.5630488 	 19.4469198 	 2325.3114 	 1.084 	 94.879
0.5646066 	 19.6792530 	 2703.1664 	 1.084 	 94.882
0.5661486 	 19.9250431 	 3215.5428 	 1.083 	 94.887
0.5676751 	 20.1647769 	 4031.0492 	 1.082 	 94.888
0.5691863 	 20.4122952 	 5143.5470 	 1.081 	 94.889
0.5706834 	 20.6460089 	 6986.0440 	 1.081 	 94.906
0.5721667 	 20.8939741 	 9441.3904 	 1.083 	 94.891
0.5736359 	 21.1380215 	 12889.0675 	 1.084 	 94.879
0.5750896 	 21.3960257 	 17200.6891 	 1.086 	 94.891
0.5765281 	 21.6629907 	 24003.9000 	 1.088 	 94.919
0.5779512 	 21.9268669 	 31799.0301 	 1.090 	 94.886
0.5793601 	 22.2200075 	 40766.3136 	 1.093 	 94.891
0.5807524 	 22.5101489 	 51930.3156 	 1.097 	 94.902
0.5821288 	 22.8111356 	 64025.5490 	 1.100 	 94.863
0.5834903 	 23.1305151 	 78861.0085 	 1.105 	 94.868
0.5848340 	 23.4636759 	 94176.9700 	 1.110 	 94.851
0.5861607 	 23.8154867 	 110804.2397 	 1.116 	 94.871
0.5874699 	 24.1671031 	 127441.0233 	 1.120 	 94.846
0.5887619 	 24.5487686 	 143628.9404 	 1.126 	 94.865
0.5900350 	 24.9260720 	 158493.4003 	 1.130 	 94.848
0.5912916 	 25.3385920 	 173177.0308 	 1.135 	 94.876
0.5925291 	 25.7483314 	 187340.7704 	 1.139 	 94.851
0.5937496 	 26.1712158 	 202275.6815 	 1.144 	 94.842
0.5949494 	 26.5965785 	 214590.3180 	 1.149 	 94.806
0.5961324 	 27.0350161 	 229057.4156 	 1.153 	 94.812
0.5972983 	 27.4873887 	 239946.5622 	 1.155 	 94.840
0.5984469 	 27.9385381 	 250979.5474 	 1.158 	 94.827
0.5995782 	 28.4061074 	 260546.2083 	 1.161 	 94.834
0.6006929 	 28.8569207 	 271104.3432 	 1.161 	 94.829
0.6017918 	 29.3199351 	 279878.4408 	 1.159 	 94.827
0.6028733 	 29.8063252 	 290964.3772 	 1.158 	 94.873
0.6039399 	 30.2620185 	 303924.5003 	 1.156 	 94.871
0.6049901 	 30.7400327 	 320400.5991 	 1.153 	 94.871
0.6060248 	 31.2234751 	 339140.2136 	 1.149 	 94.870
0.6070461 	 31.7183556 	 362711.9479 	 1.144 	 94.917
0.6080526 	 32.2255118 	 391698.3687 	 1.138 	 94.961
0.6090438 	 32.7369357 	 423133.5191 	 1.133 	 94.955
0.6100215 	 33.2647267 	 455600.8351 	 1.129 	 94.969
0.6109841 	 33.8078951 	 489748.5719 	 1.124 	 94.972
0.6119323 	 34.3756484 	 520815.4288 	 1.119 	 94.973
0.6128654 	 34.9592207 	 550809.6155 	 1.117 	 95.009
0.6137840 	 35.5349101 	 577438.8991 	 1.113 	 94.960
0.6146879 	 36.1564441 	 599860.1898 	 1.112 	 94.965
0.6155782 	 36.7954314 	 620761.1384 	 1.110 	 94.973
0.6164538 	 37.4407309 	 638702.3087 	 1.108 	 94.989
0.6173147 	 38.0899069 	 652811.4133 	 1.106 	 94.968
0.6181613 	 38.7509317 	 667642.9454 	 1.106 	 94.939
0.6189941 	 39.4366622 	 679231.7804 	 1.105 	 94.953
0.6198131 	 40.1338266 	 692579.0418 	 1.104 	 94.944
0.6206193 	 40.8349338 	 703696.6809 	 1.103 	 94.922
0.6214120 	 41.5355910 	 718978.7555 	 1.104 	 94.870
0.6221914 	 42.2770950 	 734160.2105 	 1.103 	 94.925
0.6229581 	 43.0149748 	 749849.0670 	 1.102 	 94.882
0.6237127 	 43.7681906 	 767169.3415 	 1.103 	 94.890
0.6244545 	 44.5434731 	 784200.2841 	 1.103 	 94.907
0.6251847 	 45.3195682 	 805318.3032 	 1.103 	 94.898
0.6259016 	 46.1259837 	 823456.4264 	 1.103 	 94.846
0.6266064 	 46.9711782 	 838118.6487 	 1.103 	 94.867
0.6272995 	 47.8243598 	 855602.9973 	 1.104 	 94.872
0.6279806 	 48.7251155 	 870586.3996 	 1.105 	 94.876
0.6286497 	 49.6257686 	 885575.1844 	 1.107 	 94.872
0.6293071 	 50.5545909 	 901978.4258 	 1.107 	 94.855
0.6299532 	 51.5285980 	 916949.2603 	 1.108 	 94.862
