N=100 	 R=1000000 	 s=1 	 Save [density, Z, rho_t, like/unlike, events per sweep]
0.0001338 	 1.0005077 	 1.1027 	 1.015 	 10.124
0.0132646 	 1.1625432 	 12.2002 	 0.950 	 46.856
0.0260961 	 1.1528229 	 22.9628 	 1.004 	 78.940
0.0385172 	 1.1918595 	 33.5309 	 1.013 	 88.250
0.0505355 	 1.2396296 	 44.4122 	 1.016 	 92.038
0.0621900 	 1.2922977 	 54.8773 	 1.018 	 93.797
0.0734909 	 1.3484090 	 64.9939 	 1.019 	 94.766
0.0844609 	 1.4077483 	 75.6616 	 1.020 	 95.252
0.0951043 	 1.4698033 	 86.1863 	 1.021 	 95.524
0.1054436 	 1.5339375 	 97.0775 	 1.022 	 95.673
0.1154886 	 1.6003800 	 107.5059 	 1.023 	 95.769
0.1252511 	 1.6687629 	 118.4594 	 1.025 	 95.804
0.1347467 	 1.7389096 	 129.5968 	 1.026 	 95.800
0.1439799 	 1.8104170 	 139.5856 	 1.027 	 95.855
0.1529720 	 1.8842297 	 149.4769 	 1.029 	 95.860
0.1617203 	 1.9598695 	 159.5949 	 1.030 	 95.817
0.1702563 	 2.0372330 	 169.7845 	 1.031 	 95.797
0.1785717 	 2.1157596 	 179.9206 	 1.032 	 95.790
0.1866718 	 2.1964697 	 189.5416 	 1.034 	 95.768
0.1945728 	 2.2789660 	 197.8975 	 1.035 	 95.772
0.2022855 	 2.3622585 	 208.7556 	 1.036 	 95.722
0.2098082 	 2.4477498 	 218.1319 	 1.037 	 95.695
0.2171492 	 2.5349011 	 227.7755 	 1.038 	 95.719
0.2243254 	 2.6230647 	 236.7720 	 1.040 	 95.714
0.2313332 	 2.7125249 	 246.7274 	 1.040 	 95.653
0.2381828 	 2.8051964 	 256.3524 	 1.042 	 95.688
0.2448797 	 2.8976041 	 267.9793 	 1.043 	 95.654
0.2514257 	 2.9926940 	 278.1416 	 1.044 	 95.618
0.2578297 	 3.0883296 	 290.2111 	 1.045 	 95.591
0.2640922 	 3.1862482 	 301.1134 	 1.046 	 95.580
0.2702204 	 3.2858397 	 310.3242 	 1.047 	 95.578
0.2762168 	 3.3862540 	 322.0850 	 1.048 	 95.545
0.2820903 	 3.4884425 	 329.4914 	 1.050 	 95.560
0.2878458 	 3.5928400 	 339.1967 	 1.051 	 95.537
0.2934834 	 3.6983810 	 348.9503 	 1.052 	 95.526
0.2990049 	 3.8053689 	 360.1548 	 1.053 	 95.535
0.3044196 	 3.9133326 	 371.0200 	 1.054 	 95.491
0.3097264 	 4.0234058 	 384.2322 	 1.055 	 95.497
0.3149306 	 4.1349894 	 393.3880 	 1.056 	 95.458
0.3200341 	 4.2478848 	 403.0784 	 1.056 	 95.475
0.3250438 	 4.3614751 	 412.0562 	 1.058 	 95.429
0.3299572 	 4.4784009 	 421.4681 	 1.059 	 95.438
0.3347739 	 4.5958676 	 431.8293 	 1.060 	 95.446
0.3395065 	 4.7145039 	 442.3482 	 1.060 	 95.430
0.3441514 	 4.8347140 	 451.9214 	 1.062 	 95.400
0.3487132 	 4.9559997 	 460.5204 	 1.063 	 95.388
0.3531938 	 5.0785077 	 472.7136 	 1.063 	 95.399
0.3575945 	 5.2037900 	 485.9166 	 1.064 	 95.355
0.3619216 	 5.3290195 	 494.5455 	 1.065 	 95.355
0.3661691 	 5.4573678 	 509.3133 	 1.066 	 95.358
0.3703481 	 5.5875041 	 521.1808 	 1.067 	 95.362
0.3744511 	 5.7171849 	 532.4048 	 1.067 	 95.355
0.3784890 	 5.8500067 	 539.5839 	 1.067 	 95.336
0.3824594 	 5.9827259 	 555.0610 	 1.069 	 95.327
0.3863603 	 6.1165439 	 564.5120 	 1.070 	 95.315
0.3902025 	 6.2533950 	 572.1225 	 1.071 	 95.312
0.3939835 	 6.3912420 	 579.6199 	 1.071 	 95.302
0.3977006 	 6.5306391 	 587.7227 	 1.072 	 95.266
0.4013605 	 6.6702834 	 599.2744 	 1.073 	 95.280
0.4049583 	 6.8115975 	 608.2858 	 1.073 	 95.274
0.4085031 	 6.9558846 	 618.9302 	 1.074 	 95.273
0.4119929 	 7.1004713 	 634.8100 	 1.074 	 95.265
0.4154277 	 7.2430541 	 637.8064 	 1.075 	 95.227
0.4188137 	 7.3914074 	 646.4454 	 1.076 	 95.249
0.4221505 	 7.5413538 	 659.1314 	 1.077 	 95.256
0.4254370 	 7.6900521 	 664.7083 	 1.077 	 95.223
0.4286731 	 7.8432103 	 676.9271 	 1.077 	 95.228
0.4318623 	 7.9950850 	 691.8435 	 1.077 	 95.203
0.4350047 	 8.1464985 	 700.2597 	 1.077 	 95.178
0.4381019 	 8.3053864 	 714.8162 	 1.078 	 95.193
0.4411566 	 8.4627055 	 721.7045 	 1.079 	 95.172
0.4441687 	 8.6223771 	 734.5522 	 1.079 	 95.185
0.4471392 	 8.7808070 	 735.4237 	 1.080 	 95.188
0.4500656 	 8.9418464 	 743.2224 	 1.080 	 95.155
0.4529543 	 9.1052750 	 756.3713 	 1.081 	 95.159
0.4558057 	 9.2656754 	 771.9470 	 1.082 	 95.161
0.4586164 	 9.4321185 	 783.2666 	 1.082 	 95.133
0.4613863 	 9.5974094 	 787.7609 	 1.082 	 95.128
0.4641190 	 9.7619358 	 795.8268 	 1.083 	 95.110
0.4668173 	 9.9344743 	 799.8439 	 1.082 	 95.142
0.4694807 	 10.1049708 	 808.4478 	 1.083 	 95.134
0.4721071 	 10.2786854 	 816.2773 	 1.084 	 95.116
0.4746988 	 10.4509082 	 823.8197 	 1.084 	 95.123
0.4772589 	 10.6224164 	 832.1278 	 1.084 	 95.099
0.4797864 	 10.8013014 	 839.8147 	 1.086 	 95.116
0.4822818 	 10.9766201 	 845.5052 	 1.086 	 95.108
0.4847467 	 11.1555874 	 856.5484 	 1.085 	 95.086
0.4871799 	 11.3403690 	 869.4474 	 1.086 	 95.114
0.4895829 	 11.5185481 	 880.6947 	 1.085 	 95.081
0.4919547 	 11.6977758 	 885.1269 	 1.085 	 95.086
0.4942989 	 11.8849997 	 888.4801 	 1.085 	 95.064
0.4966143 	 12.0667137 	 895.5711 	 1.086 	 95.091
0.4989014 	 12.2541008 	 907.1122 	 1.086 	 95.043
0.5011615 	 12.4470041 	 920.2633 	 1.087 	 95.070
0.5033935 	 12.6339245 	 933.1026 	 1.086 	 95.061
0.5056000 	 12.8235988 	 938.3074 	 1.087 	 95.036
0.5077804 	 13.0163208 	 951.1967 	 1.087 	 95.035
0.5099357 	 13.2063210 	 959.4296 	 1.086 	 95.022
0.5120643 	 13.4016526 	 973.4112 	 1.087 	 95.032
0.5141693 	 13.6012054 	 981.6326 	 1.087 	 95.007
0.5162495 	 13.7978385 	 983.5859 	 1.086 	 95.007
0.5183070 	 13.9988734 	 992.6970 	 1.087 	 95.012
0.5203400 	 14.1976085 	 1005.9276 	 1.087 	 95.007
0.5223521 	 14.3945451 	 1009.6166 	 1.087 	 95.002
0.5243398 	 14.5980401 	 1022.6015 	 1.087 	 94.982
0.5263067 	 14.8058490 	 1036.5130 	 1.088 	 94.968
0.5282494 	 15.0168985 	 1043.5022 	 1.088 	 94.970
0.5301720 	 15.2286985 	 1053.6496 	 1.088 	 94.975
0.5320726 	 15.4343924 	 1070.8326 	 1.089 	 94.973
0.5339526 	 15.6432915 	 1086.3966 	 1.088 	 94.988
0.5358114 	 15.8532069 	 1096.0766 	 1.089 	 94.981
0.5376510 	 16.0649023 	 1105.8715 	 1.089 	 94.938
0.5394715 	 16.2776329 	 1127.1663 	 1.089 	 94.937
0.5412729 	 16.4982718 	 1145.9660 	 1.089 	 94.945
0.5430548 	 16.7165236 	 1172.1514 	 1.089 	 94.918
0.5448179 	 16.9343231 	 1185.4468 	 1.090 	 94.931
0.5465615 	 17.1582648 	 1203.8868 	 1.088 	 94.952
0.5482873 	 17.3791884 	 1230.2748 	 1.088 	 94.923
0.5499956 	 17.6016461 	 1252.1841 	 1.088 	 94.914
0.5516861 	 17.8273231 	 1285.8702 	 1.088 	 94.932
0.5533585 	 18.0596851 	 1327.1519 	 1.088 	 94.923
0.5550148 	 18.2813026 	 1370.0052 	 1.089 	 94.911
0.5566539 	 18.5122841 	 1447.1560 	 1.089 	 94.908
0.5582759 	 18.7372148 	 1547.6476 	 1.088 	 94.888
0.5598824 	 18.9697918 	 1668.1077 	 1.087 	 94.889
0.5614707 	 19.2067840 	 1832.3544 	 1.087 	 94.885
0.5630439 	 19.4427969 	 2062.9052 	 1.088 	 94.876
0.5646023 	 19.6772125 	 2356.6547 	 1.087 	 94.874
0.5661451 	 19.9120208 	 2744.1777 	 1.088 	 94.865
0.5676736 	 20.1487921 	 3340.9585 	 1.087 	 94.875
0.5691870 	 20.3911087 	 4088.9438 	 1.087 	 94.846
0.5706850 	 20.6372773 	 5234.9664 	 1.089 	 94.829
0.5721678 	 20.8828379 	 6747.8162 	 1.090 	 94.841
0.5736374 	 21.1323938 	 8806.4097 	 1.091 	 94.836
0.5750919 	 21.3910774 	 11386.6614 	 1.092 	 94.822
0.5765322 	 21.6394833 	 14785.6292 	 1.094 	 94.751
0.5779572 	 21.9062169 	 19699.3073 	 1.096 	 94.806
0.5793668 	 22.1607265 	 26492.0293 	 1.099 	 94.812
0.5807632 	 22.4268638 	 35566.9146 	 1.102 	 94.805
0.5821465 	 22.7050064 	 47802.3485 	 1.106 	 94.811
0.5835149 	 22.9871226 	 64730.1479 	 1.111 	 94.856
0.5848697 	 23.2702800 	 86905.6415 	 1.116 	 94.827
0.5862093 	 23.5585782 	 115611.7947 	 1.123 	 94.805
0.5875346 	 23.8703144 	 150147.4583 	 1.130 	 94.823
0.5888435 	 24.2108169 	 184722.9623 	 1.137 	 94.831
0.5901361 	 24.5642991 	 223296.4573 	 1.144 	 94.860
0.5914132 	 24.9296044 	 265373.3476 	 1.151 	 94.851
0.5926724 	 25.3131782 	 305707.6555 	 1.158 	 94.852
0.5939141 	 25.7142010 	 340025.4521 	 1.163 	 94.832
0.5951377 	 26.1410183 	 372867.1156 	 1.168 	 94.816
0.5963425 	 26.5823689 	 403015.3204 	 1.173 	 94.830
0.5975277 	 27.0433669 	 425059.1928 	 1.176 	 94.832
0.5986949 	 27.5240319 	 443539.4634 	 1.180 	 94.874
0.5998436 	 28.0083450 	 459330.1218 	 1.182 	 94.826
0.6009736 	 28.5196440 	 470136.8075 	 1.183 	 94.826
0.6020841 	 29.0445583 	 475597.1901 	 1.185 	 94.825
0.6031761 	 29.5902550 	 475777.3846 	 1.186 	 94.843
0.6042496 	 30.1168373 	 475876.5370 	 1.187 	 94.769
0.6053049 	 30.6841203 	 472843.7740 	 1.186 	 94.815
0.6063416 	 31.2627543 	 467885.9298 	 1.185 	 94.818
0.6073603 	 31.8450052 	 464669.5246 	 1.185 	 94.812
0.6083623 	 32.4314865 	 459109.0672 	 1.183 	 94.763
0.6093469 	 33.0383489 	 455459.7420 	 1.181 	 94.772
0.6103141 	 33.6524248 	 456272.3486 	 1.179 	 94.765
0.6112652 	 34.2885194 	 457815.5290 	 1.177 	 94.754
0.6121987 	 34.9181642 	 463435.2627 	 1.174 	 94.747
0.6131165 	 35.5696251 	 473447.2888 	 1.172 	 94.739
0.6140180 	 36.2352701 	 487404.7788 	 1.170 	 94.744
0.6149045 	 36.8992300 	 505107.4942 	 1.167 	 94.697
0.6157751 	 37.5838151 	 524743.4714 	 1.165 	 94.676
0.6166305 	 38.3008900 	 546452.6024 	 1.163 	 94.698
0.6174714 	 39.0019206 	 570157.7647 	 1.161 	 94.664
0.6182973 	 39.7279540 	 597768.5280 	 1.159 	 94.664
0.6191092 	 40.4701259 	 622996.1957 	 1.158 	 94.651
0.6199067 	 41.2188923 	 644621.2251 	 1.156 	 94.626
0.6206899 	 41.9876430 	 665692.9154 	 1.156 	 94.631
0.6214601 	 42.7803984 	 685838.0027 	 1.155 	 94.607
0.6222166 	 43.5793865 	 701880.6925 	 1.154 	 94.603
0.6229601 	 44.3514593 	 708136.0188 	 1.154 	 94.544
0.6236899 	 45.1972606 	 710413.5956 	 1.153 	 94.560
0.6244078 	 46.0278904 	 707239.0753 	 1.153 	 94.564
0.6251131 	 46.8504613 	 698381.4423 	 1.153 	 94.521
0.6258063 	 47.6961719 	 679385.8150 	 1.151 	 94.523
0.6264878 	 48.5392051 	 652510.5241 	 1.151 	 94.518
0.6271588 	 49.3561884 	 621116.0667 	 1.148 	 94.507
0.6278190 	 50.1523730 	 583427.2126 	 1.146 	 94.476
0.6284692 	 50.9493822 	 546190.7537 	 1.143 	 94.451
0.6291098 	 51.7389221 	 513359.0516 	 1.140 	 94.449
0.6297414 	 52.5101234 	 491619.7127 	 1.136 	 94.414
