N=100 	 R=1000000 	 s=1 	 Save [density, Z, rho_t, like/unlike, events per sweep]
0.0001336 	 1.0005117 	 1.1027 	 0.999 	 10.124
0.0132514 	 1.1627199 	 12.1664 	 0.950 	 46.773
0.0260639 	 1.1528066 	 22.9589 	 1.005 	 78.899
0.0384728 	 1.1917082 	 33.5440 	 1.013 	 88.213
0.0505010 	 1.2394850 	 43.9940 	 1.016 	 91.998
0.0621398 	 1.2920059 	 54.3047 	 1.017 	 93.806
0.0734334 	 1.3480722 	 64.7780 	 1.019 	 94.791
0.0844029 	 1.4074437 	 75.1768 	 1.020 	 95.223
0.0950442 	 1.4693295 	 85.4261 	 1.021 	 95.533
0.1053819 	 1.5335750 	 95.8693 	 1.022 	 95.654
0.1154237 	 1.5998518 	 106.5756 	 1.024 	 95.766
0.1251887 	 1.6683235 	 117.1973 	 1.025 	 95.811
0.1346783 	 1.7383486 	 127.8743 	 1.026 	 95.791
0.1439199 	 1.8098777 	 138.9574 	 1.027 	 95.862
0.1529169 	 1.8838605 	 149.7371 	 1.029 	 95.859
0.1616754 	 1.9595370 	 161.1394 	 1.030 	 95.848
0.1702054 	 2.0366126 	 171.2210 	 1.031 	 95.813
0.1785175 	 2.1154233 	 181.9816 	 1.032 	 95.770
0.1866267 	 2.1961014 	 191.3405 	 1.034 	 95.769
0.1945309 	 2.2783370 	 202.6136 	 1.035 	 95.764
0.2022468 	 2.3622126 	 212.1098 	 1.036 	 95.751
0.2097772 	 2.4475793 	 222.3057 	 1.037 	 95.741
0.2171222 	 2.5339845 	 233.1823 	 1.038 	 95.691
0.2242947 	 2.6224223 	 243.9721 	 1.040 	 95.662
0.2313053 	 2.7123377 	 253.8624 	 1.041 	 95.660
0.2381567 	 2.8040082 	 263.1115 	 1.042 	 95.643
0.2448487 	 2.8973250 	 273.1495 	 1.043 	 95.651
0.2513915 	 2.9918831 	 283.8995 	 1.044 	 95.650
0.2577975 	 3.0881441 	 290.7515 	 1.046 	 95.608
0.2640603 	 3.1859979 	 302.0929 	 1.047 	 95.605
0.2701928 	 3.2854496 	 313.5075 	 1.048 	 95.591
0.2761938 	 3.3865578 	 323.6282 	 1.049 	 95.581
0.2820660 	 3.4886364 	 334.6300 	 1.049 	 95.556
0.2878198 	 3.5921661 	 346.2117 	 1.051 	 95.541
0.2934535 	 3.6981548 	 355.0683 	 1.052 	 95.530
0.2989755 	 3.8042912 	 365.3524 	 1.053 	 95.506
0.3043903 	 3.9136198 	 376.4847 	 1.054 	 95.522
0.3096978 	 4.0225677 	 386.5928 	 1.055 	 95.490
0.3149036 	 4.1345421 	 394.7560 	 1.055 	 95.488
0.3200060 	 4.2469740 	 402.2707 	 1.057 	 95.479
0.3250162 	 4.3616198 	 411.5899 	 1.057 	 95.476
0.3299283 	 4.4771271 	 424.9328 	 1.059 	 95.439
0.3347481 	 4.5950697 	 433.1184 	 1.060 	 95.394
0.3394808 	 4.7138291 	 439.6581 	 1.061 	 95.410
0.3441286 	 4.8339348 	 447.2801 	 1.062 	 95.401
0.3486939 	 4.9554462 	 458.5460 	 1.062 	 95.387
0.3531742 	 5.0791749 	 469.5656 	 1.064 	 95.384
0.3575752 	 5.2024994 	 475.9166 	 1.064 	 95.353
0.3618963 	 5.3298387 	 486.3132 	 1.065 	 95.373
0.3661451 	 5.4570234 	 497.5102 	 1.065 	 95.345
0.3703274 	 5.5854585 	 508.4129 	 1.066 	 95.324
0.3744323 	 5.7169280 	 516.8297 	 1.068 	 95.367
0.3784685 	 5.8484125 	 530.3287 	 1.068 	 95.311
0.3824410 	 5.9817463 	 539.2068 	 1.069 	 95.325
0.3863464 	 6.1157786 	 545.9746 	 1.069 	 95.303
0.3901915 	 6.2533633 	 559.4039 	 1.070 	 95.304
0.3939675 	 6.3901527 	 567.4580 	 1.071 	 95.284
0.3976901 	 6.5301545 	 581.3333 	 1.072 	 95.290
0.4013520 	 6.6697727 	 590.5267 	 1.072 	 95.285
0.4049556 	 6.8119166 	 602.0031 	 1.073 	 95.268
0.4085046 	 6.9550714 	 619.0040 	 1.074 	 95.251
0.4119972 	 7.0985856 	 628.5251 	 1.075 	 95.244
0.4154366 	 7.2470980 	 640.6629 	 1.075 	 95.263
0.4188210 	 7.3929523 	 650.9907 	 1.075 	 95.225
0.4221569 	 7.5416843 	 655.1144 	 1.076 	 95.217
0.4254423 	 7.6921866 	 661.6183 	 1.077 	 95.227
0.4286805 	 7.8420314 	 667.4540 	 1.077 	 95.190
0.4318700 	 7.9954104 	 668.4294 	 1.078 	 95.218
0.4350131 	 8.1491549 	 678.5248 	 1.078 	 95.175
0.4381103 	 8.3060015 	 689.7933 	 1.078 	 95.214
0.4411632 	 8.4614000 	 700.8765 	 1.079 	 95.174
0.4441748 	 8.6218597 	 711.5209 	 1.080 	 95.188
0.4471420 	 8.7824450 	 717.2549 	 1.080 	 95.193
0.4500692 	 8.9394434 	 728.3220 	 1.080 	 95.149
0.4529579 	 9.1025557 	 736.3060 	 1.081 	 95.160
0.4558043 	 9.2685493 	 744.5477 	 1.081 	 95.172
0.4586128 	 9.4316665 	 759.4866 	 1.081 	 95.161
0.4613825 	 9.5981078 	 770.1384 	 1.082 	 95.142
0.4641172 	 9.7659763 	 780.9469 	 1.082 	 95.103
0.4668127 	 9.9346504 	 794.8023 	 1.082 	 95.107
0.4694760 	 10.1024589 	 800.9864 	 1.083 	 95.100
0.4721035 	 10.2769319 	 809.0017 	 1.084 	 95.092
0.4746957 	 10.4504862 	 813.3288 	 1.084 	 95.091
0.4772559 	 10.6209844 	 824.7097 	 1.083 	 95.085
0.4797830 	 10.8010736 	 835.3866 	 1.084 	 95.090
0.4822767 	 10.9797503 	 855.8077 	 1.084 	 95.123
0.4847411 	 11.1569703 	 858.9850 	 1.084 	 95.063
0.4871750 	 11.3376144 	 869.6970 	 1.084 	 95.091
0.4895785 	 11.5188181 	 884.7252 	 1.084 	 95.079
0.4919517 	 11.6995172 	 899.2610 	 1.084 	 95.087
0.4942971 	 11.8858094 	 907.0965 	 1.085 	 95.070
0.4966116 	 12.0714830 	 917.2962 	 1.085 	 95.061
0.4989001 	 12.2565388 	 921.2830 	 1.085 	 95.062
0.5011594 	 12.4433710 	 935.7592 	 1.086 	 95.064
0.5033927 	 12.6327652 	 942.6251 	 1.085 	 95.042
0.5055997 	 12.8210330 	 958.4079 	 1.086 	 95.028
0.5077806 	 13.0155176 	 972.7870 	 1.087 	 95.013
0.5099353 	 13.2079272 	 978.7017 	 1.087 	 95.019
0.5120650 	 13.4068990 	 990.3769 	 1.087 	 95.031
0.5141696 	 13.6004832 	 996.6311 	 1.088 	 95.014
0.5162494 	 13.7961188 	 1012.4206 	 1.088 	 94.980
0.5183075 	 14.0000993 	 1028.0043 	 1.088 	 95.011
0.5203411 	 14.1970118 	 1038.3648 	 1.088 	 94.984
0.5223503 	 14.4013726 	 1041.6946 	 1.088 	 95.007
0.5243388 	 14.6045116 	 1046.3404 	 1.088 	 95.014
0.5263052 	 14.8069540 	 1062.9035 	 1.088 	 94.991
0.5282503 	 15.0152441 	 1077.5602 	 1.088 	 95.006
0.5301723 	 15.2232837 	 1091.2976 	 1.089 	 94.964
0.5320734 	 15.4318328 	 1099.2380 	 1.089 	 94.963
0.5339545 	 15.6466779 	 1112.4380 	 1.089 	 94.969
0.5358145 	 15.8595360 	 1124.4983 	 1.089 	 94.971
0.5376549 	 16.0702514 	 1137.9410 	 1.088 	 94.934
0.5394748 	 16.2870066 	 1160.8860 	 1.088 	 94.958
0.5412771 	 16.5008794 	 1173.1447 	 1.087 	 94.963
0.5430580 	 16.7187137 	 1192.9838 	 1.088 	 94.960
0.5448205 	 16.9377822 	 1209.9298 	 1.088 	 94.935
0.5465643 	 17.1611165 	 1225.6502 	 1.087 	 94.960
0.5482902 	 17.3796581 	 1247.3362 	 1.087 	 94.923
0.5499968 	 17.6133375 	 1271.1685 	 1.086 	 94.943
0.5516868 	 17.8320497 	 1308.7286 	 1.087 	 94.904
0.5533589 	 18.0588621 	 1338.4134 	 1.086 	 94.892
0.5550142 	 18.2932863 	 1383.0013 	 1.087 	 94.897
0.5566529 	 18.5284174 	 1438.0574 	 1.087 	 94.906
0.5582728 	 18.7566636 	 1522.9954 	 1.086 	 94.882
0.5598773 	 18.9947886 	 1614.6870 	 1.086 	 94.903
0.5614657 	 19.2416656 	 1744.3581 	 1.086 	 94.935
0.5630369 	 19.4740831 	 1892.2251 	 1.085 	 94.912
0.5645913 	 19.7134663 	 2105.7282 	 1.086 	 94.884
0.5661318 	 19.9661467 	 2334.7832 	 1.085 	 94.882
0.5676542 	 20.2119143 	 2636.5965 	 1.084 	 94.855
0.5691613 	 20.4628064 	 3078.7241 	 1.084 	 94.860
0.5706521 	 20.7247770 	 3680.3396 	 1.084 	 94.857
0.5721290 	 20.9852110 	 4451.5897 	 1.083 	 94.848
0.5735882 	 21.2499784 	 5421.7777 	 1.082 	 94.857
0.5750338 	 21.5265793 	 6833.2211 	 1.081 	 94.845
0.5764630 	 21.8085932 	 8695.9648 	 1.080 	 94.841
0.5778749 	 22.0818023 	 11226.8348 	 1.078 	 94.812
0.5792723 	 22.3843040 	 14191.9525 	 1.077 	 94.824
0.5806543 	 22.6910653 	 18174.4393 	 1.076 	 94.802
0.5820199 	 23.0072983 	 22982.0147 	 1.075 	 94.798
0.5833678 	 23.3292863 	 28984.1252 	 1.073 	 94.796
0.5846989 	 23.6760512 	 35458.9100 	 1.072 	 94.762
0.5860123 	 24.0311133 	 43056.1922 	 1.071 	 94.757
0.5873088 	 24.3896552 	 50381.0262 	 1.070 	 94.734
0.5885886 	 24.7599296 	 57561.8236 	 1.069 	 94.689
0.5898500 	 25.1459749 	 66672.8963 	 1.069 	 94.677
0.5910944 	 25.5485635 	 73650.9159 	 1.069 	 94.696
0.5923216 	 25.9618105 	 80241.7375 	 1.068 	 94.657
0.5935287 	 26.3891663 	 85907.2254 	 1.068 	 94.652
0.5947179 	 26.8245030 	 90694.4551 	 1.067 	 94.625
0.5958894 	 27.2848078 	 95047.3029 	 1.068 	 94.625
0.5970443 	 27.7490556 	 96667.3809 	 1.067 	 94.638
0.5981807 	 28.2183358 	 97934.2750 	 1.067 	 94.609
0.5992995 	 28.6955981 	 99208.4404 	 1.067 	 94.606
0.6004008 	 29.1738077 	 98363.8186 	 1.066 	 94.549
0.6014854 	 29.6670206 	 96477.7831 	 1.066 	 94.553
0.6025538 	 30.1796322 	 95024.6450 	 1.067 	 94.563
0.6036049 	 30.6727286 	 94244.9980 	 1.067 	 94.558
0.6046408 	 31.1763977 	 95387.4353 	 1.066 	 94.553
0.6056614 	 31.6763237 	 99101.0428 	 1.066 	 94.522
0.6066668 	 32.1890562 	 105363.1969 	 1.066 	 94.530
0.6076574 	 32.6998827 	 115001.8647 	 1.065 	 94.527
0.6086331 	 33.2038868 	 130158.3369 	 1.065 	 94.531
0.6095957 	 33.7112701 	 149405.8834 	 1.064 	 94.499
0.6105449 	 34.2364562 	 172299.1115 	 1.063 	 94.529
0.6114808 	 34.7643199 	 199467.2083 	 1.063 	 94.504
0.6124028 	 35.3122258 	 228742.9414 	 1.063 	 94.534
0.6133124 	 35.8530125 	 258697.5433 	 1.062 	 94.497
0.6142083 	 36.4259694 	 288157.8856 	 1.062 	 94.463
0.6150908 	 37.0079513 	 317144.6022 	 1.062 	 94.481
0.6159606 	 37.6113043 	 342164.6033 	 1.062 	 94.471
0.6168160 	 38.2357597 	 368359.6263 	 1.062 	 94.495
0.6176588 	 38.8731882 	 390034.8880 	 1.063 	 94.516
0.6184888 	 39.5123495 	 411569.0063 	 1.063 	 94.530
0.6193059 	 40.1941125 	 432282.6974 	 1.063 	 94.549
0.6201103 	 40.8757411 	 454325.7835 	 1.064 	 94.593
0.6209022 	 41.5569271 	 479040.8658 	 1.063 	 94.606
0.6216809 	 42.2708930 	 507282.0081 	 1.064 	 94.648
0.6224472 	 42.9664235 	 540042.6746 	 1.065 	 94.646
0.6232018 	 43.7137966 	 576733.2321 	 1.065 	 94.723
0.6239443 	 44.4482711 	 616508.5197 	 1.065 	 94.762
0.6246754 	 45.2095408 	 655693.2324 	 1.066 	 94.809
0.6253940 	 45.9754220 	 695721.1688 	 1.066 	 94.856
0.6261020 	 46.7803113 	 736431.8932 	 1.068 	 94.887
0.6267982 	 47.5882033 	 776930.0935 	 1.069 	 94.903
0.6274832 	 48.4199324 	 815660.9753 	 1.070 	 94.927
0.6281562 	 49.2850243 	 848724.4258 	 1.072 	 94.951
0.6288178 	 50.1731115 	 875159.8130 	 1.074 	 94.949
0.6294679 	 51.0790278 	 899528.8014 	 1.076 	 94.936
