N=100 	 R=1000000 	 s=1 	 Save [density, Z, rho_t, like/unlike, events per sweep]
0.0001350 	 1.0005139 	 1.1027 	 1.015 	 10.125
0.0132516 	 1.1625617 	 12.1813 	 0.951 	 46.778
0.0260786 	 1.1528326 	 22.8084 	 1.004 	 78.922
0.0384964 	 1.1918034 	 33.1831 	 1.014 	 88.233
0.0505153 	 1.2395865 	 43.3885 	 1.016 	 92.018
0.0621666 	 1.2922471 	 54.0156 	 1.018 	 93.804
0.0734636 	 1.3482347 	 64.6182 	 1.019 	 94.774
0.0844253 	 1.4077247 	 75.2105 	 1.020 	 95.276
0.0950712 	 1.4696061 	 85.6137 	 1.021 	 95.526
0.1054108 	 1.5337448 	 96.0679 	 1.022 	 95.656
0.1154578 	 1.6002176 	 105.8996 	 1.023 	 95.765
0.1252198 	 1.6685673 	 117.4803 	 1.024 	 95.802
0.1347139 	 1.7387358 	 128.1061 	 1.026 	 95.835
0.1439506 	 1.8099362 	 139.8399 	 1.027 	 95.868
0.1529382 	 1.8841223 	 150.5503 	 1.029 	 95.849
0.1616964 	 1.9596517 	 162.0574 	 1.030 	 95.819
0.1702287 	 2.0370736 	 172.4655 	 1.031 	 95.825
0.1785418 	 2.1156254 	 182.9050 	 1.033 	 95.775
0.1866437 	 2.1964426 	 192.4525 	 1.034 	 95.788
0.1945421 	 2.2782549 	 203.5468 	 1.035 	 95.740
0.2022550 	 2.3620064 	 213.9697 	 1.036 	 95.725
0.2097753 	 2.4472923 	 223.5746 	 1.038 	 95.716
0.2171239 	 2.5341031 	 234.7107 	 1.038 	 95.720
0.2242915 	 2.6222056 	 246.0086 	 1.040 	 95.669
0.2312998 	 2.7127040 	 256.9604 	 1.041 	 95.674
0.2381474 	 2.8039024 	 267.7718 	 1.042 	 95.659
0.2448449 	 2.8970951 	 276.3048 	 1.043 	 95.632
0.2513928 	 2.9917897 	 286.9653 	 1.045 	 95.615
0.2577920 	 3.0881390 	 297.6573 	 1.045 	 95.595
0.2640517 	 3.1855271 	 310.0663 	 1.046 	 95.582
0.2701847 	 3.2852760 	 320.9193 	 1.047 	 95.592
0.2761857 	 3.3862839 	 330.6515 	 1.049 	 95.591
0.2820640 	 3.4878607 	 341.0311 	 1.050 	 95.537
0.2878195 	 3.5923321 	 347.8606 	 1.051 	 95.546
0.2934547 	 3.6968312 	 359.1970 	 1.052 	 95.496
0.2989794 	 3.8047965 	 364.9492 	 1.053 	 95.523
0.3043936 	 3.9130587 	 376.7257 	 1.054 	 95.501
0.3097011 	 4.0225065 	 391.7428 	 1.055 	 95.485
0.3149070 	 4.1343770 	 402.0362 	 1.056 	 95.464
0.3200135 	 4.2464791 	 410.9695 	 1.057 	 95.453
0.3250184 	 4.3619070 	 425.0662 	 1.057 	 95.467
0.3299283 	 4.4775112 	 438.8628 	 1.059 	 95.444
0.3347472 	 4.5954684 	 452.1008 	 1.060 	 95.431
0.3394790 	 4.7130616 	 464.3423 	 1.060 	 95.414
0.3441260 	 4.8350110 	 477.1444 	 1.061 	 95.432
0.3486881 	 4.9558677 	 490.0537 	 1.062 	 95.409
0.3531681 	 5.0784107 	 501.3430 	 1.063 	 95.375
0.3575726 	 5.2036636 	 511.3300 	 1.064 	 95.375
0.3618964 	 5.3293478 	 520.7803 	 1.065 	 95.348
0.3661486 	 5.4574691 	 531.1625 	 1.066 	 95.357
0.3703256 	 5.5853386 	 542.5644 	 1.067 	 95.332
0.3744319 	 5.7169345 	 555.5505 	 1.067 	 95.327
0.3784687 	 5.8483756 	 567.1426 	 1.068 	 95.334
0.3824400 	 5.9810130 	 575.7465 	 1.068 	 95.297
0.3863437 	 6.1144215 	 586.4151 	 1.070 	 95.287
0.3901856 	 6.2512812 	 600.0708 	 1.070 	 95.307
0.3939647 	 6.3903918 	 608.3051 	 1.071 	 95.323
0.3976818 	 6.5284916 	 618.7238 	 1.071 	 95.288
0.4013435 	 6.6675721 	 634.5307 	 1.072 	 95.238
0.4049450 	 6.8114094 	 644.4622 	 1.073 	 95.296
0.4084942 	 6.9550076 	 659.5905 	 1.073 	 95.277
0.4119882 	 7.0989512 	 670.0076 	 1.074 	 95.246
0.4154255 	 7.2459074 	 679.3641 	 1.076 	 95.253
0.4188125 	 7.3915839 	 688.7903 	 1.075 	 95.236
0.4221462 	 7.5387000 	 703.0299 	 1.077 	 95.199
0.4254304 	 7.6902875 	 711.1950 	 1.076 	 95.212
0.4286714 	 7.8423932 	 724.0482 	 1.077 	 95.213
0.4318618 	 7.9962812 	 733.1539 	 1.078 	 95.216
0.4350065 	 8.1495051 	 739.4488 	 1.079 	 95.179
0.4381031 	 8.3067338 	 750.0035 	 1.079 	 95.201
0.4411577 	 8.4624761 	 760.7125 	 1.078 	 95.167
0.4441691 	 8.6207010 	 771.2431 	 1.080 	 95.176
0.4471377 	 8.7775960 	 785.8072 	 1.080 	 95.161
0.4500638 	 8.9412798 	 795.5047 	 1.080 	 95.169
0.4529510 	 9.1018156 	 801.7102 	 1.081 	 95.139
0.4557998 	 9.2653830 	 815.2492 	 1.081 	 95.137
0.4586085 	 9.4294603 	 823.4009 	 1.081 	 95.117
0.4613789 	 9.6002486 	 836.6068 	 1.083 	 95.156
0.4641141 	 9.7651828 	 852.7314 	 1.084 	 95.116
0.4668123 	 9.9350405 	 860.6629 	 1.083 	 95.140
0.4694776 	 10.1046697 	 870.2739 	 1.084 	 95.125
0.4721025 	 10.2746957 	 884.8472 	 1.084 	 95.100
0.4746985 	 10.4501644 	 892.1617 	 1.084 	 95.102
0.4772585 	 10.6251491 	 904.1756 	 1.084 	 95.110
0.4797851 	 10.7997490 	 911.2038 	 1.085 	 95.086
0.4822797 	 10.9763219 	 915.8509 	 1.085 	 95.085
0.4847463 	 11.1591786 	 933.0620 	 1.085 	 95.065
0.4871775 	 11.3352695 	 939.5889 	 1.085 	 95.059
0.4895807 	 11.5158736 	 948.1916 	 1.085 	 95.054
0.4919519 	 11.6997571 	 960.3239 	 1.085 	 95.084
0.4942964 	 11.8856460 	 975.8047 	 1.086 	 95.092
0.4966118 	 12.0708932 	 981.8237 	 1.086 	 95.086
0.4988972 	 12.2542493 	 985.5614 	 1.086 	 95.042
0.5011556 	 12.4434239 	 999.4055 	 1.087 	 95.066
0.5033894 	 12.6349157 	 1014.6101 	 1.086 	 95.044
0.5055935 	 12.8247812 	 1029.8269 	 1.086 	 95.019
0.5077747 	 13.0164820 	 1038.8655 	 1.086 	 95.061
0.5099287 	 13.2093243 	 1052.4500 	 1.085 	 95.025
0.5120581 	 13.4053448 	 1059.3361 	 1.085 	 95.035
0.5141641 	 13.5992929 	 1063.4285 	 1.086 	 95.002
0.5162450 	 13.7992927 	 1070.3793 	 1.086 	 95.023
0.5183013 	 14.0007110 	 1080.4926 	 1.085 	 95.015
0.5203361 	 14.1975549 	 1095.3167 	 1.086 	 94.989
0.5223479 	 14.3999640 	 1106.1189 	 1.086 	 94.982
0.5243351 	 14.6035781 	 1121.9151 	 1.086 	 94.975
0.5263003 	 14.8138615 	 1133.3553 	 1.087 	 94.995
0.5282444 	 15.0175156 	 1142.7753 	 1.087 	 95.008
0.5301678 	 15.2169378 	 1157.2937 	 1.088 	 94.965
0.5320717 	 15.4318223 	 1174.9992 	 1.087 	 94.973
0.5339508 	 15.6427270 	 1189.8121 	 1.087 	 94.965
0.5358104 	 15.8557373 	 1194.1387 	 1.087 	 94.966
0.5376498 	 16.0634540 	 1206.7525 	 1.086 	 94.954
0.5394713 	 16.2833113 	 1230.9218 	 1.086 	 94.980
0.5412717 	 16.5000768 	 1235.6401 	 1.086 	 94.949
0.5430535 	 16.7131315 	 1246.6403 	 1.086 	 94.927
0.5448174 	 16.9337592 	 1255.2711 	 1.086 	 94.921
0.5465622 	 17.1536135 	 1279.5925 	 1.087 	 94.911
0.5482896 	 17.3798227 	 1299.7182 	 1.087 	 94.937
0.5499979 	 17.6014041 	 1326.1141 	 1.086 	 94.930
0.5516878 	 17.8250089 	 1357.7481 	 1.086 	 94.934
0.5533616 	 18.0525185 	 1396.7750 	 1.086 	 94.923
0.5550181 	 18.2773353 	 1452.2782 	 1.084 	 94.873
0.5566567 	 18.5110011 	 1505.5523 	 1.085 	 94.882
0.5582785 	 18.7423379 	 1576.1479 	 1.085 	 94.899
0.5598842 	 18.9728553 	 1685.3931 	 1.084 	 94.892
0.5614747 	 19.2075750 	 1832.2091 	 1.083 	 94.896
0.5630491 	 19.4414494 	 2014.5864 	 1.082 	 94.873
0.5646066 	 19.6822144 	 2282.8607 	 1.081 	 94.892
0.5661494 	 19.9148476 	 2669.8133 	 1.080 	 94.833
0.5676758 	 20.1541208 	 3247.1184 	 1.080 	 94.826
0.5691876 	 20.4041720 	 4023.7511 	 1.079 	 94.826
0.5706857 	 20.6404203 	 5154.1185 	 1.078 	 94.817
0.5721680 	 20.8969411 	 6774.3676 	 1.077 	 94.810
0.5736352 	 21.1513682 	 9013.6627 	 1.074 	 94.794
0.5750874 	 21.4219477 	 11849.7137 	 1.073 	 94.819
0.5765258 	 21.6904143 	 15936.9636 	 1.071 	 94.828
0.5779489 	 21.9605018 	 20821.9171 	 1.069 	 94.791
0.5793569 	 22.2523177 	 26385.8718 	 1.067 	 94.807
0.5807467 	 22.5555166 	 33086.4942 	 1.066 	 94.755
0.5821203 	 22.8633460 	 40856.2158 	 1.064 	 94.763
0.5834771 	 23.1962556 	 48292.5703 	 1.063 	 94.736
0.5848168 	 23.5369871 	 56337.6712 	 1.063 	 94.718
0.5861394 	 23.8945544 	 64041.1692 	 1.062 	 94.739
0.5874447 	 24.2548711 	 72010.4738 	 1.063 	 94.730
0.5887302 	 24.6316766 	 79267.5716 	 1.063 	 94.696
0.5899996 	 25.0287000 	 86738.1749 	 1.064 	 94.714
0.5912490 	 25.4300115 	 92396.4015 	 1.065 	 94.676
0.5924808 	 25.8515950 	 97071.3339 	 1.067 	 94.689
0.5936952 	 26.2701142 	 101028.5275 	 1.070 	 94.648
0.5948908 	 26.7181761 	 104548.1566 	 1.073 	 94.656
0.5960683 	 27.1652303 	 107300.9339 	 1.077 	 94.647
0.5972274 	 27.6302832 	 110210.7615 	 1.081 	 94.651
0.5983699 	 28.1052025 	 111840.0496 	 1.085 	 94.661
0.5994946 	 28.5797421 	 114204.8223 	 1.090 	 94.620
0.6006003 	 29.0770997 	 116349.3189 	 1.095 	 94.639
0.6016892 	 29.5771898 	 120114.5458 	 1.100 	 94.597
0.6027609 	 30.0944541 	 122690.9085 	 1.105 	 94.622
0.6038161 	 30.6051513 	 126423.1107 	 1.110 	 94.589
0.6048539 	 31.1544665 	 130597.0494 	 1.115 	 94.616
0.6058755 	 31.6892018 	 135818.9622 	 1.120 	 94.599
0.6068793 	 32.2464758 	 140051.7333 	 1.125 	 94.558
0.6078663 	 32.8169102 	 146709.0653 	 1.131 	 94.575
0.6088387 	 33.3949833 	 153943.4036 	 1.137 	 94.546
0.6097948 	 33.9848735 	 161038.0013 	 1.142 	 94.536
0.6107348 	 34.5888536 	 169709.2376 	 1.148 	 94.507
0.6116589 	 35.2131100 	 177297.8193 	 1.152 	 94.472
0.6125678 	 35.8534742 	 185837.3145 	 1.156 	 94.477
0.6134618 	 36.5128183 	 192792.5058 	 1.160 	 94.437
0.6143401 	 37.1949738 	 200111.7037 	 1.163 	 94.440
0.6152025 	 37.8600393 	 208735.7949 	 1.167 	 94.391
0.6160511 	 38.5677641 	 217653.6897 	 1.170 	 94.389
0.6168850 	 39.2699753 	 225572.8583 	 1.172 	 94.361
0.6177049 	 40.0075271 	 230264.1047 	 1.173 	 94.334
0.6185105 	 40.7412816 	 235136.6011 	 1.174 	 94.316
0.6193012 	 41.5062804 	 236320.1023 	 1.173 	 94.313
0.6200782 	 42.2677906 	 238292.9209 	 1.172 	 94.313
0.6208425 	 43.0139979 	 237521.8044 	 1.169 	 94.245
0.6215936 	 43.8041742 	 237150.3699 	 1.165 	 94.280
0.6223322 	 44.5998969 	 234294.8263 	 1.159 	 94.305
0.6230584 	 45.3651054 	 231169.2089 	 1.151 	 94.300
0.6237722 	 46.1244818 	 230221.7469 	 1.142 	 94.296
0.6244749 	 46.9089863 	 234228.5041 	 1.131 	 94.322
0.6251674 	 47.6569175 	 246284.0285 	 1.118 	 94.371
0.6258498 	 48.3989095 	 269866.9365 	 1.102 	 94.393
0.6265223 	 49.1276771 	 305601.6730 	 1.085 	 94.436
0.6271860 	 49.8668990 	 355577.9603 	 1.068 	 94.488
0.6278397 	 50.5892987 	 421651.4539 	 1.051 	 94.518
0.6284844 	 51.3367446 	 492636.9342 	 1.037 	 94.575
0.6291204 	 52.1129472 	 568078.5496 	 1.023 	 94.629
0.6297475 	 52.9031438 	 643439.1775 	 1.012 	 94.629
