N=100 	 R=1000000 	 s=1 	 Save [density, Z, rho_t, like/unlike, events per sweep]
0.0001330 	 1.0005057 	 1.1026 	 1.008 	 10.123
0.0132517 	 1.1625827 	 12.1867 	 0.949 	 46.803
0.0260717 	 1.1527899 	 22.8238 	 1.005 	 78.954
0.0384832 	 1.1917823 	 33.3013 	 1.013 	 88.243
0.0504971 	 1.2395239 	 43.6725 	 1.016 	 92.013
0.0621408 	 1.2920220 	 54.2465 	 1.017 	 93.821
0.0734444 	 1.3480463 	 64.4204 	 1.019 	 94.768
0.0844029 	 1.4074825 	 74.2379 	 1.020 	 95.236
0.0950355 	 1.4694178 	 84.4675 	 1.021 	 95.524
0.1053790 	 1.5335883 	 95.1623 	 1.023 	 95.682
0.1154209 	 1.6000016 	 105.9186 	 1.024 	 95.770
0.1251859 	 1.6683035 	 116.3641 	 1.024 	 95.818
0.1346941 	 1.7385072 	 127.3354 	 1.026 	 95.797
0.1439351 	 1.8100486 	 137.2220 	 1.027 	 95.863
0.1529263 	 1.8840349 	 146.6459 	 1.029 	 95.845
0.1616822 	 1.9593078 	 155.5965 	 1.030 	 95.806
0.1702180 	 2.0366833 	 166.0696 	 1.031 	 95.804
0.1785308 	 2.1158407 	 175.9808 	 1.033 	 95.790
0.1866295 	 2.1962086 	 186.8659 	 1.033 	 95.762
0.1945355 	 2.2784489 	 196.2308 	 1.034 	 95.757
0.2022480 	 2.3619929 	 206.8097 	 1.036 	 95.750
0.2097764 	 2.4475967 	 215.8159 	 1.037 	 95.742
0.2171246 	 2.5343264 	 226.1704 	 1.039 	 95.699
0.2243038 	 2.6223890 	 238.5269 	 1.040 	 95.719
0.2313095 	 2.7121632 	 248.9464 	 1.041 	 95.673
0.2381581 	 2.8041603 	 258.4689 	 1.042 	 95.649
0.2448542 	 2.8971965 	 269.3473 	 1.043 	 95.655
0.2513985 	 2.9921671 	 278.8744 	 1.044 	 95.634
0.2578025 	 3.0878282 	 290.1089 	 1.046 	 95.620
0.2640680 	 3.1862869 	 300.7313 	 1.046 	 95.629
0.2701999 	 3.2862319 	 309.5769 	 1.047 	 95.587
0.2761994 	 3.3863128 	 320.1028 	 1.049 	 95.563
0.2820747 	 3.4879972 	 330.2121 	 1.050 	 95.541
0.2878314 	 3.5926316 	 340.7364 	 1.051 	 95.541
0.2934640 	 3.6969936 	 349.9202 	 1.052 	 95.504
0.2989879 	 3.8052519 	 357.4069 	 1.053 	 95.526
0.3044023 	 3.9125325 	 366.7326 	 1.054 	 95.487
0.3097138 	 4.0229548 	 376.3297 	 1.055 	 95.477
0.3149173 	 4.1347733 	 386.6264 	 1.056 	 95.503
0.3200168 	 4.2475382 	 396.1667 	 1.057 	 95.480
0.3250236 	 4.3617517 	 403.5294 	 1.057 	 95.480
0.3299360 	 4.4779504 	 412.0324 	 1.058 	 95.451
0.3347582 	 4.5958021 	 421.4991 	 1.060 	 95.442
0.3394893 	 4.7140104 	 431.3683 	 1.060 	 95.416
0.3441341 	 4.8344199 	 441.8673 	 1.062 	 95.413
0.3486988 	 4.9551967 	 451.0630 	 1.062 	 95.376
0.3531779 	 5.0791834 	 464.3715 	 1.063 	 95.404
0.3575810 	 5.2035541 	 475.5946 	 1.064 	 95.365
0.3619068 	 5.3297962 	 486.4458 	 1.065 	 95.385
0.3661583 	 5.4576626 	 497.4414 	 1.066 	 95.371
0.3703363 	 5.5868340 	 510.4478 	 1.067 	 95.365
0.3744407 	 5.7164290 	 523.8986 	 1.067 	 95.330
0.3784741 	 5.8481160 	 537.4185 	 1.068 	 95.321
0.3824426 	 5.9811229 	 548.1136 	 1.069 	 95.325
0.3863466 	 6.1167384 	 557.1493 	 1.069 	 95.291
0.3901855 	 6.2529316 	 563.1510 	 1.070 	 95.319
0.3939631 	 6.3901529 	 573.0163 	 1.071 	 95.285
0.3976817 	 6.5286754 	 584.6243 	 1.072 	 95.271
0.4013431 	 6.6703522 	 593.8699 	 1.073 	 95.288
0.4049474 	 6.8103597 	 604.0468 	 1.073 	 95.235
0.4084952 	 6.9530324 	 621.7592 	 1.074 	 95.239
0.4119888 	 7.0986561 	 633.0099 	 1.074 	 95.258
0.4154279 	 7.2430878 	 640.1394 	 1.075 	 95.227
0.4188162 	 7.3930116 	 651.9489 	 1.075 	 95.245
0.4221514 	 7.5418370 	 661.0768 	 1.076 	 95.247
0.4254367 	 7.6925769 	 670.8633 	 1.077 	 95.221
0.4286730 	 7.8423997 	 686.4038 	 1.077 	 95.238
0.4318630 	 7.9949779 	 694.6923 	 1.077 	 95.204
0.4350079 	 8.1489154 	 707.2427 	 1.078 	 95.174
0.4381043 	 8.3044993 	 720.8889 	 1.079 	 95.172
0.4411592 	 8.4620561 	 735.1777 	 1.079 	 95.196
0.4441700 	 8.6216135 	 748.9867 	 1.080 	 95.196
0.4471381 	 8.7767244 	 758.6268 	 1.081 	 95.137
0.4500636 	 8.9434021 	 768.9458 	 1.080 	 95.183
0.4529522 	 9.1027810 	 779.0170 	 1.081 	 95.158
0.4557996 	 9.2648789 	 788.8587 	 1.082 	 95.118
0.4586087 	 9.4334646 	 799.8935 	 1.082 	 95.157
0.4613805 	 9.5980611 	 817.0196 	 1.083 	 95.124
0.4641151 	 9.7675598 	 829.6513 	 1.083 	 95.154
0.4668119 	 9.9340288 	 842.3319 	 1.083 	 95.114
0.4694735 	 10.1056590 	 856.4501 	 1.083 	 95.128
0.4721006 	 10.2789219 	 864.7309 	 1.083 	 95.112
0.4746943 	 10.4499448 	 873.1466 	 1.084 	 95.099
0.4772562 	 10.6249355 	 882.4867 	 1.084 	 95.116
0.4797843 	 10.8010368 	 886.4594 	 1.085 	 95.124
0.4822796 	 10.9751539 	 901.6040 	 1.085 	 95.070
0.4847444 	 11.1538041 	 909.8774 	 1.085 	 95.090
0.4871784 	 11.3363417 	 919.7152 	 1.086 	 95.084
0.4895807 	 11.5172749 	 927.0823 	 1.086 	 95.080
0.4919532 	 11.7006382 	 944.1244 	 1.085 	 95.074
0.4942985 	 11.8846376 	 963.5837 	 1.086 	 95.057
0.4966147 	 12.0671425 	 974.9023 	 1.086 	 95.057
0.4989012 	 12.2544957 	 983.7238 	 1.086 	 95.061
0.5011625 	 12.4483866 	 990.6292 	 1.087 	 95.060
0.5033956 	 12.6361528 	 997.1259 	 1.087 	 95.051
0.5056008 	 12.8225254 	 992.3183 	 1.086 	 95.034
0.5077794 	 13.0157119 	 999.0677 	 1.086 	 95.053
0.5099343 	 13.2082086 	 1015.6334 	 1.087 	 95.004
0.5120656 	 13.4061299 	 1027.9445 	 1.086 	 95.035
0.5141727 	 13.5976794 	 1029.7212 	 1.086 	 95.012
0.5162526 	 13.7973740 	 1039.9779 	 1.087 	 95.007
0.5183086 	 13.9945435 	 1059.2402 	 1.087 	 94.990
0.5203426 	 14.1968847 	 1067.2747 	 1.088 	 95.013
0.5223542 	 14.3986503 	 1077.6068 	 1.088 	 95.014
0.5243427 	 14.5996387 	 1090.5521 	 1.087 	 94.996
0.5263097 	 14.8065416 	 1102.0209 	 1.088 	 94.983
0.5282539 	 15.0161045 	 1114.1367 	 1.088 	 94.992
0.5301773 	 15.2209366 	 1122.7699 	 1.087 	 94.985
0.5320779 	 15.4315620 	 1139.8487 	 1.087 	 94.994
0.5339590 	 15.6408397 	 1157.4068 	 1.087 	 94.942
0.5358193 	 15.8535608 	 1180.1522 	 1.087 	 94.963
0.5376588 	 16.0673265 	 1201.9774 	 1.086 	 94.962
0.5394786 	 16.2793832 	 1222.4498 	 1.086 	 94.953
0.5412799 	 16.4938832 	 1232.7801 	 1.087 	 94.930
0.5430632 	 16.7126911 	 1257.7461 	 1.086 	 94.971
0.5448293 	 16.9257265 	 1273.3627 	 1.086 	 94.929
0.5465761 	 17.1493295 	 1289.2359 	 1.086 	 94.930
0.5483027 	 17.3699381 	 1320.0121 	 1.086 	 94.913
0.5500115 	 17.5916032 	 1357.0034 	 1.086 	 94.923
0.5517040 	 17.8149521 	 1412.2859 	 1.086 	 94.922
0.5533788 	 18.0441655 	 1455.8221 	 1.086 	 94.907
0.5550361 	 18.2700349 	 1533.5123 	 1.085 	 94.908
0.5566761 	 18.4969364 	 1618.7752 	 1.085 	 94.917
0.5583008 	 18.7235912 	 1759.3462 	 1.085 	 94.874
0.5599078 	 18.9579654 	 1900.9013 	 1.085 	 94.895
0.5614996 	 19.1890175 	 2113.2570 	 1.085 	 94.892
0.5630749 	 19.4285554 	 2378.7683 	 1.085 	 94.863
0.5646342 	 19.6729306 	 2727.0072 	 1.085 	 94.901
0.5661777 	 19.9168935 	 3154.7701 	 1.085 	 94.869
0.5677059 	 20.1675752 	 3634.0978 	 1.086 	 94.864
0.5692182 	 20.4192652 	 4276.1641 	 1.086 	 94.866
0.5707142 	 20.6711524 	 5052.0404 	 1.084 	 94.859
0.5721963 	 20.9339160 	 5948.8123 	 1.083 	 94.845
0.5736604 	 21.2024874 	 6889.1297 	 1.083 	 94.856
0.5751081 	 21.4740008 	 8194.5411 	 1.082 	 94.852
0.5765414 	 21.7566513 	 9644.1429 	 1.082 	 94.825
0.5779583 	 22.0433173 	 11538.1729 	 1.081 	 94.848
0.5793593 	 22.3323359 	 13761.2235 	 1.079 	 94.825
0.5807448 	 22.6257523 	 16603.2330 	 1.079 	 94.840
0.5821137 	 22.9415787 	 20359.1245 	 1.079 	 94.871
0.5834678 	 23.2461084 	 25330.2307 	 1.078 	 94.843
0.5848044 	 23.5650115 	 31669.3529 	 1.077 	 94.862
0.5861265 	 23.8865024 	 39532.0715 	 1.076 	 94.897
0.5874324 	 24.2272810 	 49764.1289 	 1.076 	 94.924
0.5887222 	 24.5634258 	 61645.0149 	 1.076 	 94.910
0.5899953 	 24.9135815 	 76127.6689 	 1.076 	 94.939
0.5912534 	 25.2756836 	 92526.7759 	 1.076 	 94.948
0.5924945 	 25.6418527 	 111195.2601 	 1.075 	 94.976
0.5937197 	 26.0189725 	 127747.3072 	 1.074 	 94.998
0.5949286 	 26.4085862 	 145402.5014 	 1.073 	 95.008
0.5961224 	 26.7974427 	 162622.3332 	 1.071 	 95.004
0.5972992 	 27.2165565 	 177107.5410 	 1.069 	 95.067
0.5984597 	 27.6294171 	 189506.1587 	 1.066 	 95.097
0.5996047 	 28.0539669 	 200339.3259 	 1.061 	 95.106
0.6007331 	 28.4836208 	 209483.4848 	 1.057 	 95.098
0.6018468 	 28.9273129 	 216826.5118 	 1.051 	 95.116
0.6029447 	 29.3668643 	 226839.7827 	 1.043 	 95.112
0.6040270 	 29.8376914 	 238271.6136 	 1.035 	 95.144
0.6050945 	 30.3008760 	 254707.3213 	 1.026 	 95.144
0.6061463 	 30.7797055 	 275728.6873 	 1.017 	 95.136
0.6071820 	 31.2747302 	 304241.9725 	 1.008 	 95.157
0.6082026 	 31.7844236 	 339285.3753 	 0.998 	 95.164
0.6092084 	 32.3095379 	 375868.0101 	 0.990 	 95.173
0.6101990 	 32.8431483 	 415117.2138 	 0.982 	 95.157
0.6111734 	 33.4186755 	 456826.8609 	 0.975 	 95.190
0.6121332 	 33.9880111 	 500066.1458 	 0.968 	 95.148
0.6130765 	 34.5975075 	 536490.6397 	 0.962 	 95.187
0.6140048 	 35.2070592 	 569316.7968 	 0.956 	 95.191
0.6149174 	 35.8395572 	 597243.6148 	 0.953 	 95.173
0.6158156 	 36.5085631 	 623067.4789 	 0.949 	 95.191
0.6166986 	 37.1859278 	 642221.7711 	 0.946 	 95.185
0.6175657 	 37.8631813 	 657635.7503 	 0.944 	 95.159
0.6184179 	 38.5678655 	 669233.4327 	 0.942 	 95.175
0.6192553 	 39.3051375 	 671020.4725 	 0.941 	 95.189
0.6200778 	 40.0442499 	 668629.7104 	 0.940 	 95.153
0.6208858 	 40.7843441 	 663215.4534 	 0.940 	 95.155
0.6216791 	 41.5549215 	 655213.0251 	 0.939 	 95.139
0.6224580 	 42.3348331 	 640169.4755 	 0.940 	 95.139
0.6232228 	 43.1227913 	 624152.9286 	 0.941 	 95.127
0.6239748 	 43.9553981 	 605140.8227 	 0.942 	 95.152
0.6247135 	 44.7690467 	 585320.8066 	 0.943 	 95.123
0.6254396 	 45.6129985 	 566798.9528 	 0.945 	 95.120
0.6261526 	 46.4677812 	 549363.2581 	 0.947 	 95.113
0.6268531 	 47.3578615 	 531740.3509 	 0.950 	 95.121
0.6275407 	 48.2592833 	 517913.2322 	 0.952 	 95.075
0.6282158 	 49.1818614 	 507679.7959 	 0.956 	 95.075
0.6288779 	 50.1416210 	 500036.1589 	 0.958 	 95.092
0.6295287 	 51.1040454 	 495990.9536 	 0.961 	 95.049
