N=100 	 R=1000000 	 s=1 	 Save [density, Z, rho_t, like/unlike, events per sweep]
0.0001359 	 1.0005140 	 1.1025 	 0.997 	 10.125
0.0132697 	 1.1625979 	 12.2550 	 0.951 	 46.844
0.0260861 	 1.1528330 	 22.7668 	 1.004 	 78.912
0.0385110 	 1.1918820 	 33.3272 	 1.013 	 88.248
0.0505313 	 1.2396285 	 43.7248 	 1.016 	 92.041
0.0621712 	 1.2922173 	 54.5632 	 1.018 	 93.796
0.0734736 	 1.3482055 	 64.6917 	 1.018 	 94.766
0.0844304 	 1.4075899 	 74.9235 	 1.020 	 95.232
0.0950725 	 1.4695280 	 85.0185 	 1.021 	 95.504
0.1054123 	 1.5338671 	 95.8178 	 1.022 	 95.685
0.1154631 	 1.6002280 	 106.1456 	 1.023 	 95.729
0.1252243 	 1.6685674 	 117.0511 	 1.025 	 95.806
0.1347193 	 1.7387272 	 128.0580 	 1.026 	 95.811
0.1439581 	 1.8101092 	 138.2475 	 1.027 	 95.873
0.1529534 	 1.8841240 	 149.4067 	 1.028 	 95.846
0.1617076 	 1.9597052 	 159.5575 	 1.029 	 95.805
0.1702430 	 2.0369608 	 168.0055 	 1.031 	 95.795
0.1785621 	 2.1162062 	 177.4837 	 1.032 	 95.825
0.1866625 	 2.1965402 	 188.1819 	 1.033 	 95.785
0.1945642 	 2.2783722 	 197.9583 	 1.035 	 95.754
0.2022696 	 2.3622313 	 208.2776 	 1.036 	 95.702
0.2097991 	 2.4472134 	 219.7586 	 1.037 	 95.688
0.2171514 	 2.5343100 	 230.9954 	 1.038 	 95.697
0.2243222 	 2.6237446 	 239.2761 	 1.040 	 95.717
0.2313323 	 2.7128863 	 248.6239 	 1.041 	 95.681
0.2381780 	 2.8045305 	 258.9442 	 1.041 	 95.650
0.2448720 	 2.8980756 	 270.1642 	 1.043 	 95.647
0.2514227 	 2.9922072 	 281.1585 	 1.044 	 95.613
0.2578249 	 3.0888644 	 292.7219 	 1.045 	 95.642
0.2640901 	 3.1866274 	 304.5869 	 1.046 	 95.597
0.2702211 	 3.2856295 	 316.6101 	 1.047 	 95.580
0.2762207 	 3.3865227 	 326.4118 	 1.048 	 95.556
0.2820948 	 3.4886470 	 337.6906 	 1.049 	 95.530
0.2878464 	 3.5927627 	 348.4988 	 1.050 	 95.547
0.2934832 	 3.6979353 	 361.7565 	 1.052 	 95.536
0.2990035 	 3.8043847 	 372.8937 	 1.052 	 95.511
0.3044131 	 3.9130653 	 384.9728 	 1.053 	 95.502
0.3097197 	 4.0228985 	 392.8630 	 1.055 	 95.491
0.3149248 	 4.1348286 	 402.9158 	 1.056 	 95.476
0.3200268 	 4.2477968 	 412.2708 	 1.056 	 95.485
0.3250360 	 4.3611700 	 421.9929 	 1.058 	 95.429
0.3299471 	 4.4772022 	 430.5132 	 1.059 	 95.448
0.3347687 	 4.5952693 	 440.8236 	 1.060 	 95.440
0.3395030 	 4.7148111 	 449.2634 	 1.060 	 95.423
0.3441497 	 4.8349785 	 457.5258 	 1.062 	 95.427
0.3487117 	 4.9563041 	 469.0675 	 1.062 	 95.388
0.3531911 	 5.0795723 	 482.3016 	 1.063 	 95.378
0.3575948 	 5.2039819 	 494.0214 	 1.064 	 95.397
0.3619167 	 5.3298815 	 507.6799 	 1.065 	 95.344
0.3661646 	 5.4570818 	 522.9426 	 1.065 	 95.375
0.3703410 	 5.5863265 	 535.5294 	 1.067 	 95.356
0.3744471 	 5.7164335 	 549.5167 	 1.066 	 95.342
0.3784803 	 5.8482940 	 566.0887 	 1.068 	 95.318
0.3824515 	 5.9806955 	 575.4498 	 1.069 	 95.275
0.3863572 	 6.1183643 	 582.2300 	 1.069 	 95.334
0.3901955 	 6.2518760 	 591.6495 	 1.070 	 95.284
0.3939748 	 6.3883792 	 599.7708 	 1.071 	 95.281
0.3976911 	 6.5300869 	 611.4272 	 1.071 	 95.282
0.4013502 	 6.6705056 	 617.6601 	 1.073 	 95.282
0.4049520 	 6.8107661 	 625.5679 	 1.074 	 95.266
0.4084971 	 6.9541238 	 634.0087 	 1.074 	 95.274
0.4119881 	 7.0988113 	 646.3368 	 1.074 	 95.256
0.4154275 	 7.2453380 	 655.4115 	 1.075 	 95.239
0.4188118 	 7.3932903 	 663.8632 	 1.076 	 95.237
0.4221488 	 7.5415548 	 677.4727 	 1.077 	 95.241
0.4254349 	 7.6910454 	 686.5935 	 1.077 	 95.189
0.4286724 	 7.8429371 	 695.9365 	 1.077 	 95.204
0.4318629 	 7.9953935 	 703.4031 	 1.078 	 95.203
0.4350079 	 8.1478611 	 712.5873 	 1.078 	 95.192
0.4381062 	 8.3053299 	 727.4972 	 1.079 	 95.222
0.4411592 	 8.4626151 	 734.6824 	 1.079 	 95.200
0.4441689 	 8.6197210 	 748.4847 	 1.080 	 95.166
0.4471372 	 8.7807737 	 762.3724 	 1.080 	 95.212
0.4500644 	 8.9427523 	 770.6420 	 1.081 	 95.176
0.4529518 	 9.1013313 	 778.0740 	 1.081 	 95.147
0.4557985 	 9.2653145 	 792.2805 	 1.081 	 95.129
0.4586066 	 9.4295058 	 799.6377 	 1.082 	 95.138
0.4613764 	 9.6004530 	 812.2579 	 1.083 	 95.147
0.4641089 	 9.7662186 	 821.8481 	 1.083 	 95.136
0.4668069 	 9.9362490 	 832.8732 	 1.083 	 95.147
0.4694680 	 10.1053094 	 842.3126 	 1.083 	 95.128
0.4720943 	 10.2758499 	 855.1750 	 1.083 	 95.136
0.4746862 	 10.4460383 	 865.8497 	 1.084 	 95.085
0.4772473 	 10.6233828 	 876.7103 	 1.084 	 95.107
0.4797755 	 10.7961822 	 887.7135 	 1.085 	 95.074
0.4822716 	 10.9785707 	 902.7410 	 1.086 	 95.108
0.4847354 	 11.1547775 	 911.7663 	 1.086 	 95.078
0.4871680 	 11.3340876 	 923.3885 	 1.086 	 95.063
0.4895705 	 11.5174447 	 938.3888 	 1.086 	 95.073
0.4919438 	 11.7014207 	 949.6363 	 1.086 	 95.069
0.4942867 	 11.8846002 	 955.2333 	 1.086 	 95.083
0.4966010 	 12.0695845 	 972.2120 	 1.086 	 95.048
0.4988899 	 12.2546665 	 979.7337 	 1.086 	 95.045
0.5011510 	 12.4433833 	 998.2970 	 1.087 	 95.049
0.5033839 	 12.6309967 	 1011.2907 	 1.087 	 95.047
0.5055919 	 12.8254295 	 1017.7921 	 1.088 	 95.056
0.5077711 	 13.0189349 	 1030.6281 	 1.088 	 95.039
0.5099259 	 13.2064916 	 1040.3346 	 1.088 	 95.011
0.5120554 	 13.4035515 	 1048.5939 	 1.088 	 95.009
0.5141601 	 13.6013446 	 1070.7472 	 1.088 	 95.018
0.5162413 	 13.7992255 	 1083.0927 	 1.088 	 95.007
0.5182992 	 13.9964280 	 1103.7880 	 1.088 	 95.019
0.5203321 	 14.1968878 	 1112.8004 	 1.088 	 95.021
0.5223431 	 14.4009882 	 1132.9733 	 1.088 	 95.006
0.5243319 	 14.6010114 	 1138.4101 	 1.088 	 94.992
0.5262980 	 14.8082800 	 1153.9241 	 1.087 	 95.013
0.5282438 	 15.0069309 	 1166.0697 	 1.087 	 94.953
0.5301660 	 15.2209976 	 1174.5416 	 1.087 	 94.978
0.5320666 	 15.4288316 	 1186.3925 	 1.087 	 94.987
0.5339488 	 15.6415493 	 1202.9845 	 1.087 	 94.977
0.5358095 	 15.8496098 	 1222.0136 	 1.087 	 94.952
0.5376501 	 16.0625898 	 1236.7684 	 1.087 	 94.971
0.5394724 	 16.2782394 	 1249.2918 	 1.086 	 94.943
0.5412724 	 16.4964550 	 1267.8712 	 1.085 	 94.976
0.5430568 	 16.7149943 	 1282.1364 	 1.085 	 94.948
0.5448196 	 16.9405611 	 1306.7994 	 1.085 	 94.960
0.5465638 	 17.1558432 	 1327.2600 	 1.086 	 94.954
0.5482902 	 17.3764936 	 1356.0947 	 1.086 	 94.912
0.5499976 	 17.5971445 	 1394.5013 	 1.085 	 94.912
0.5516869 	 17.8264998 	 1416.1729 	 1.085 	 94.910
0.5533589 	 18.0521412 	 1452.7871 	 1.085 	 94.896
0.5550149 	 18.2868650 	 1500.7635 	 1.086 	 94.924
0.5566540 	 18.5189975 	 1556.4439 	 1.086 	 94.914
0.5582759 	 18.7496028 	 1643.1930 	 1.086 	 94.898
0.5598820 	 18.9791266 	 1736.2800 	 1.085 	 94.906
0.5614716 	 19.2126850 	 1860.4653 	 1.084 	 94.884
0.5630450 	 19.4496815 	 2025.7661 	 1.084 	 94.890
0.5646029 	 19.6906906 	 2277.6509 	 1.083 	 94.890
0.5661452 	 19.9316813 	 2613.5483 	 1.081 	 94.869
0.5676724 	 20.1654384 	 3103.4800 	 1.079 	 94.851
0.5691831 	 20.4167616 	 3755.0726 	 1.079 	 94.871
0.5706789 	 20.6586393 	 4648.3585 	 1.078 	 94.862
0.5721608 	 20.9045375 	 5926.9866 	 1.077 	 94.844
0.5736268 	 21.1595360 	 7692.0516 	 1.076 	 94.841
0.5750793 	 21.4159835 	 10134.4103 	 1.074 	 94.852
0.5765168 	 21.6826541 	 13010.6506 	 1.073 	 94.832
0.5779397 	 21.9344370 	 17019.0276 	 1.071 	 94.798
0.5793482 	 22.2005116 	 22349.4105 	 1.069 	 94.794
0.5807427 	 22.4806766 	 28980.1469 	 1.068 	 94.806
0.5821220 	 22.7635053 	 36969.2769 	 1.067 	 94.791
0.5834858 	 23.0596001 	 46550.6896 	 1.066 	 94.803
0.5848346 	 23.3610615 	 57858.4512 	 1.065 	 94.763
0.5861679 	 23.6788589 	 71182.2540 	 1.065 	 94.784
0.5874861 	 24.0103075 	 85051.0013 	 1.065 	 94.741
0.5887874 	 24.3541792 	 99752.0625 	 1.066 	 94.738
0.5900719 	 24.7149634 	 114070.2155 	 1.069 	 94.722
0.5913381 	 25.0975725 	 128901.3557 	 1.071 	 94.744
0.5925888 	 25.4860900 	 142050.7635 	 1.073 	 94.725
0.5938213 	 25.8910454 	 155990.6834 	 1.077 	 94.719
0.5950364 	 26.3148638 	 167774.2214 	 1.079 	 94.721
0.5962334 	 26.7435893 	 177706.1920 	 1.082 	 94.695
0.5974122 	 27.2004331 	 186609.8167 	 1.085 	 94.710
0.5985732 	 27.6556984 	 193847.8842 	 1.089 	 94.665
0.5997161 	 28.1239770 	 199647.1368 	 1.093 	 94.651
0.6008414 	 28.6101670 	 203527.7074 	 1.096 	 94.652
0.6019496 	 29.0978351 	 207557.8465 	 1.100 	 94.639
0.6030394 	 29.6029909 	 210906.1322 	 1.103 	 94.626
0.6041123 	 30.0985210 	 213524.7511 	 1.107 	 94.597
0.6051682 	 30.6118495 	 216781.7372 	 1.110 	 94.595
0.6062089 	 31.1292816 	 222709.2107 	 1.114 	 94.573
0.6072338 	 31.6394940 	 232755.3106 	 1.119 	 94.553
0.6082408 	 32.1567671 	 248943.0364 	 1.124 	 94.550
0.6092349 	 32.6796672 	 273159.6233 	 1.130 	 94.557
0.6102144 	 33.1928400 	 307387.9686 	 1.136 	 94.541
0.6111794 	 33.7013441 	 350268.0407 	 1.143 	 94.515
0.6121301 	 34.2371986 	 400433.3477 	 1.152 	 94.511
0.6130669 	 34.7708283 	 459245.4597 	 1.161 	 94.519
0.6139913 	 35.3113750 	 527354.0006 	 1.170 	 94.531
0.6149022 	 35.8841268 	 594564.3092 	 1.179 	 94.537
0.6158000 	 36.4595537 	 662431.6131 	 1.188 	 94.527
0.6166832 	 37.0702133 	 726538.8571 	 1.197 	 94.546
0.6175530 	 37.7031160 	 783581.4529 	 1.206 	 94.506
0.6184095 	 38.3570741 	 830688.7749 	 1.213 	 94.498
0.6192519 	 39.0426694 	 870627.6989 	 1.221 	 94.514
0.6200796 	 39.7466939 	 902383.9427 	 1.227 	 94.460
0.6208936 	 40.4831031 	 926963.1562 	 1.233 	 94.447
0.6216934 	 41.2530248 	 946357.9304 	 1.240 	 94.458
0.6224791 	 42.0375423 	 960790.5642 	 1.244 	 94.437
0.6232504 	 42.8448408 	 971477.6760 	 1.250 	 94.416
0.6240079 	 43.6778125 	 979870.0480 	 1.254 	 94.436
0.6247512 	 44.5241980 	 985010.0094 	 1.260 	 94.392
0.6254806 	 45.4021195 	 988800.1673 	 1.264 	 94.357
0.6261965 	 46.2960719 	 991706.1626 	 1.268 	 94.387
0.6268996 	 47.2099442 	 994184.0067 	 1.272 	 94.383
0.6275887 	 48.1485789 	 995730.5828 	 1.276 	 94.375
0.6282651 	 49.1058817 	 996873.5082 	 1.280 	 94.350
0.6289285 	 50.0767861 	 997562.1633 	 1.284 	 94.354
0.6295795 	 51.0808007 	 998209.1803 	 1.288 	 94.313
