N=100 	 R=1000000 	 s=1 	 Save [density, Z, rho_t, like/unlike, events per sweep]
0.0001345 	 1.0005137 	 1.1027 	 1.004 	 10.125
0.0132539 	 1.1625630 	 12.2015 	 0.950 	 46.791
0.0260708 	 1.1527932 	 22.7605 	 1.004 	 78.937
0.0384938 	 1.1917615 	 33.4051 	 1.013 	 88.230
0.0505003 	 1.2394576 	 43.9889 	 1.016 	 92.020
0.0621413 	 1.2919882 	 54.5561 	 1.018 	 93.793
0.0734367 	 1.3480295 	 65.0332 	 1.019 	 94.740
0.0844082 	 1.4075999 	 75.8439 	 1.020 	 95.254
0.0950503 	 1.4693874 	 85.6491 	 1.021 	 95.514
0.1053822 	 1.5336954 	 95.7423 	 1.023 	 95.656
0.1154241 	 1.5999023 	 105.9823 	 1.024 	 95.756
0.1251795 	 1.6683550 	 116.4890 	 1.025 	 95.814
0.1346799 	 1.7383261 	 126.3632 	 1.025 	 95.798
0.1439237 	 1.8096957 	 136.6278 	 1.027 	 95.875
0.1529253 	 1.8840533 	 147.1667 	 1.028 	 95.847
0.1616862 	 1.9593309 	 157.3833 	 1.030 	 95.791
0.1702139 	 2.0366734 	 168.3433 	 1.031 	 95.816
0.1785258 	 2.1158364 	 179.5607 	 1.032 	 95.810
0.1866329 	 2.1964213 	 190.2182 	 1.034 	 95.787
0.1945364 	 2.2784422 	 200.1414 	 1.035 	 95.747
0.2022454 	 2.3618346 	 211.1151 	 1.036 	 95.729
0.2097726 	 2.4472614 	 220.8949 	 1.037 	 95.712
0.2171235 	 2.5342539 	 231.0249 	 1.038 	 95.703
0.2242971 	 2.6224645 	 241.6086 	 1.040 	 95.697
0.2313075 	 2.7130006 	 250.9498 	 1.041 	 95.685
0.2381530 	 2.8042480 	 262.9890 	 1.042 	 95.667
0.2448467 	 2.8971971 	 274.0529 	 1.043 	 95.631
0.2513915 	 2.9914615 	 285.6638 	 1.044 	 95.609
0.2577940 	 3.0881316 	 296.6906 	 1.045 	 95.615
0.2640565 	 3.1861794 	 306.5060 	 1.047 	 95.591
0.2701855 	 3.2849731 	 318.6499 	 1.047 	 95.577
0.2761833 	 3.3861710 	 325.4272 	 1.049 	 95.556
0.2820545 	 3.4882828 	 335.8837 	 1.049 	 95.583
0.2878089 	 3.5925085 	 346.9504 	 1.051 	 95.556
0.2934459 	 3.6973740 	 358.4276 	 1.052 	 95.536
0.2989697 	 3.8046686 	 366.7775 	 1.053 	 95.533
0.3043809 	 3.9122814 	 378.6280 	 1.054 	 95.478
0.3096876 	 4.0227732 	 386.2156 	 1.055 	 95.488
0.3148916 	 4.1338698 	 398.3705 	 1.056 	 95.489
0.3199953 	 4.2470295 	 410.0873 	 1.057 	 95.494
0.3250050 	 4.3614195 	 418.3335 	 1.058 	 95.482
0.3299151 	 4.4774319 	 430.1030 	 1.058 	 95.449
0.3347327 	 4.5938026 	 442.5192 	 1.060 	 95.402
0.3394651 	 4.7132161 	 451.5879 	 1.060 	 95.413
0.3441095 	 4.8329574 	 460.9170 	 1.062 	 95.391
0.3486732 	 4.9543812 	 473.0136 	 1.063 	 95.377
0.3531527 	 5.0780201 	 481.6538 	 1.063 	 95.395
0.3575574 	 5.2026142 	 488.7292 	 1.065 	 95.386
0.3618849 	 5.3286884 	 499.5279 	 1.065 	 95.364
0.3661356 	 5.4559681 	 513.6445 	 1.066 	 95.355
0.3703110 	 5.5848990 	 520.3459 	 1.067 	 95.332
0.3744173 	 5.7170249 	 532.4703 	 1.067 	 95.359
0.3784562 	 5.8483749 	 541.7753 	 1.068 	 95.335
0.3824266 	 5.9805275 	 551.1757 	 1.069 	 95.301
0.3863349 	 6.1158953 	 563.3204 	 1.069 	 95.308
0.3901782 	 6.2522626 	 577.2241 	 1.071 	 95.308
0.3939579 	 6.3910067 	 587.4639 	 1.071 	 95.289
0.3976773 	 6.5291423 	 591.3406 	 1.072 	 95.283
0.4013340 	 6.6690912 	 603.4798 	 1.073 	 95.284
0.4049348 	 6.8099957 	 615.4753 	 1.074 	 95.273
0.4084795 	 6.9531127 	 623.2954 	 1.074 	 95.264
0.4119702 	 7.0970884 	 635.9007 	 1.075 	 95.241
0.4154136 	 7.2436718 	 646.5274 	 1.075 	 95.257
0.4188010 	 7.3911136 	 656.4025 	 1.076 	 95.216
0.4221369 	 7.5406081 	 667.3530 	 1.076 	 95.208
0.4254218 	 7.6899065 	 676.6888 	 1.076 	 95.215
0.4286579 	 7.8412928 	 681.1005 	 1.077 	 95.222
0.4318477 	 7.9951244 	 688.2132 	 1.078 	 95.222
0.4349894 	 8.1480405 	 694.8136 	 1.078 	 95.190
0.4380896 	 8.3037333 	 701.9557 	 1.079 	 95.187
0.4411442 	 8.4605276 	 710.1940 	 1.079 	 95.185
0.4441528 	 8.6194964 	 718.9542 	 1.080 	 95.193
0.4471234 	 8.7798675 	 728.9118 	 1.080 	 95.181
0.4500506 	 8.9404820 	 739.1836 	 1.081 	 95.160
0.4529372 	 9.1026554 	 751.7737 	 1.082 	 95.162
0.4557854 	 9.2661458 	 764.8880 	 1.082 	 95.179
0.4585952 	 9.4297894 	 772.7266 	 1.082 	 95.113
0.4613662 	 9.5975684 	 785.9998 	 1.082 	 95.146
0.4641010 	 9.7654775 	 797.8804 	 1.083 	 95.145
0.4667985 	 9.9353067 	 803.1215 	 1.083 	 95.153
0.4694599 	 10.1028160 	 809.9270 	 1.083 	 95.081
0.4720897 	 10.2751626 	 829.2562 	 1.083 	 95.120
0.4746847 	 10.4487503 	 835.3086 	 1.083 	 95.105
0.4772447 	 10.6216516 	 845.2435 	 1.084 	 95.091
0.4797738 	 10.7979653 	 853.9850 	 1.083 	 95.088
0.4822678 	 10.9777326 	 863.8774 	 1.083 	 95.091
0.4847320 	 11.1575827 	 875.3938 	 1.084 	 95.089
0.4871653 	 11.3365209 	 884.9056 	 1.085 	 95.084
0.4895661 	 11.5143303 	 896.8902 	 1.085 	 95.091
0.4919383 	 11.6967416 	 903.7596 	 1.086 	 95.058
0.4942830 	 11.8828131 	 919.8329 	 1.085 	 95.072
0.4965998 	 12.0694756 	 928.1027 	 1.085 	 95.057
0.4988861 	 12.2538715 	 937.9214 	 1.086 	 95.046
0.5011457 	 12.4418363 	 942.8537 	 1.086 	 95.025
0.5033779 	 12.6324100 	 950.9636 	 1.086 	 95.066
0.5055841 	 12.8209176 	 964.4288 	 1.087 	 95.041
0.5077665 	 13.0166786 	 978.7903 	 1.086 	 95.043
0.5099211 	 13.2102367 	 988.0969 	 1.086 	 95.022
0.5120513 	 13.4034064 	 1001.4391 	 1.087 	 95.010
0.5141576 	 13.6030417 	 1011.4465 	 1.087 	 95.024
0.5162391 	 13.7976064 	 1018.4872 	 1.087 	 94.994
0.5182954 	 14.0003924 	 1032.2655 	 1.087 	 95.013
0.5203299 	 14.1999137 	 1044.5948 	 1.087 	 95.014
0.5223404 	 14.4002464 	 1061.9044 	 1.088 	 94.983
0.5243298 	 14.6030989 	 1083.8450 	 1.088 	 94.973
0.5262959 	 14.8142323 	 1097.0862 	 1.088 	 95.018
0.5282389 	 15.0159670 	 1111.1379 	 1.088 	 94.997
0.5301621 	 15.2241514 	 1125.2172 	 1.088 	 94.992
0.5320635 	 15.4339959 	 1139.4912 	 1.088 	 94.972
0.5339442 	 15.6429348 	 1161.7970 	 1.088 	 94.971
0.5358057 	 15.8533598 	 1183.7036 	 1.089 	 94.952
0.5376455 	 16.0717908 	 1199.4523 	 1.088 	 94.974
0.5394662 	 16.2853969 	 1231.1508 	 1.088 	 94.948
0.5412659 	 16.4987025 	 1242.1090 	 1.087 	 94.937
0.5430492 	 16.7217865 	 1259.5872 	 1.088 	 94.929
0.5448103 	 16.9436468 	 1277.3684 	 1.088 	 94.938
0.5465549 	 17.1605511 	 1297.8442 	 1.087 	 94.915
0.5482798 	 17.3838302 	 1327.9632 	 1.087 	 94.930
0.5499869 	 17.6110811 	 1359.5863 	 1.087 	 94.961
0.5516776 	 17.8371172 	 1389.6663 	 1.087 	 94.928
0.5533493 	 18.0678427 	 1421.0725 	 1.087 	 94.907
0.5550040 	 18.3058523 	 1464.7748 	 1.087 	 94.902
0.5566407 	 18.5385898 	 1514.7950 	 1.087 	 94.909
0.5582589 	 18.7748692 	 1574.4350 	 1.086 	 94.901
0.5598623 	 19.0118974 	 1659.4113 	 1.085 	 94.895
0.5614481 	 19.2514326 	 1762.3534 	 1.086 	 94.902
0.5630191 	 19.4976207 	 1876.8698 	 1.085 	 94.904
0.5645728 	 19.7365477 	 2046.5360 	 1.085 	 94.885
0.5661107 	 19.9904887 	 2235.0119 	 1.085 	 94.862
0.5676319 	 20.2441636 	 2480.6350 	 1.084 	 94.896
0.5691362 	 20.5002302 	 2759.8643 	 1.084 	 94.869
0.5706241 	 20.7533530 	 3118.9853 	 1.083 	 94.858
0.5720981 	 21.0223214 	 3624.5045 	 1.084 	 94.867
0.5735558 	 21.2915358 	 4225.7247 	 1.084 	 94.916
0.5749985 	 21.5664301 	 5043.8279 	 1.083 	 94.860
0.5764253 	 21.8456212 	 6056.5144 	 1.083 	 94.828
0.5778358 	 22.1300725 	 7387.9878 	 1.083 	 94.842
0.5792301 	 22.4280220 	 8939.9360 	 1.082 	 94.875
0.5806091 	 22.7249064 	 11077.0098 	 1.083 	 94.850
0.5819709 	 23.0341606 	 13322.5735 	 1.084 	 94.855
0.5833184 	 23.3473227 	 16136.9966 	 1.084 	 94.840
0.5846492 	 23.6615059 	 19634.4703 	 1.084 	 94.837
0.5859645 	 23.9931340 	 23764.9718 	 1.086 	 94.811
0.5872638 	 24.3306424 	 28828.4537 	 1.088 	 94.816
0.5885472 	 24.6684026 	 34669.2805 	 1.091 	 94.809
0.5898148 	 25.0214124 	 41258.1031 	 1.095 	 94.803
0.5910661 	 25.3913203 	 48218.6890 	 1.097 	 94.789
0.5923016 	 25.7696262 	 56698.9961 	 1.101 	 94.774
0.5935208 	 26.1668832 	 65319.4492 	 1.105 	 94.788
0.5947222 	 26.5735356 	 75188.1747 	 1.111 	 94.742
0.5959074 	 26.9934664 	 84578.4056 	 1.114 	 94.745
0.5970742 	 27.4322036 	 95048.8129 	 1.119 	 94.761
0.5982237 	 27.8772215 	 105728.5038 	 1.123 	 94.729
0.5993569 	 28.3411684 	 114357.3777 	 1.125 	 94.708
0.6004724 	 28.8258413 	 122604.6315 	 1.127 	 94.751
0.6015713 	 29.3014058 	 131700.3790 	 1.129 	 94.711
0.6026516 	 29.8028266 	 138554.0806 	 1.128 	 94.761
0.6037164 	 30.3111014 	 146038.2820 	 1.128 	 94.786
0.6047645 	 30.8411471 	 154718.5923 	 1.126 	 94.814
0.6057962 	 31.3597224 	 165463.7139 	 1.123 	 94.840
0.6068115 	 31.9038228 	 178712.9093 	 1.119 	 94.903
0.6078113 	 32.4471205 	 194359.2167 	 1.114 	 94.923
0.6087955 	 32.9930239 	 214663.8050 	 1.108 	 94.951
0.6097641 	 33.5538565 	 240646.8841 	 1.101 	 95.011
0.6107173 	 34.1263102 	 269881.5410 	 1.095 	 95.072
0.6116560 	 34.6950633 	 307202.2440 	 1.087 	 95.143
0.6125797 	 35.2946251 	 345218.1972 	 1.080 	 95.200
0.6134884 	 35.8972699 	 385165.1220 	 1.075 	 95.236
0.6143825 	 36.5302875 	 425763.0936 	 1.067 	 95.300
0.6152614 	 37.1820651 	 462800.1372 	 1.063 	 95.331
0.6161265 	 37.8515349 	 497583.4454 	 1.059 	 95.365
0.6169762 	 38.5234156 	 530985.7888 	 1.056 	 95.374
0.6178123 	 39.2288938 	 554873.8338 	 1.055 	 95.431
0.6186344 	 39.9494862 	 575503.0414 	 1.053 	 95.424
0.6194418 	 40.6920532 	 588093.2668 	 1.053 	 95.451
0.6202353 	 41.4250172 	 592366.5414 	 1.055 	 95.439
0.6210153 	 42.1931647 	 592175.8077 	 1.056 	 95.448
0.6217811 	 42.9578850 	 582463.8919 	 1.060 	 95.452
0.6225348 	 43.7436330 	 567553.8800 	 1.063 	 95.444
0.6232761 	 44.5380644 	 553151.7645 	 1.067 	 95.442
0.6240041 	 45.3304997 	 535087.1724 	 1.072 	 95.412
0.6247208 	 46.1164413 	 516994.2455 	 1.077 	 95.416
0.6254254 	 46.9290926 	 498867.8276 	 1.083 	 95.391
0.6261185 	 47.7384281 	 484628.4168 	 1.090 	 95.357
0.6268003 	 48.5286404 	 474180.4546 	 1.098 	 95.298
0.6274709 	 49.3441963 	 470894.4857 	 1.106 	 95.277
0.6281312 	 50.1852638 	 474925.4518 	 1.115 	 95.250
0.6287806 	 51.0424823 	 485397.7191 	 1.123 	 95.200
0.6294200 	 51.9290772 	 502463.3453 	 1.132 	 95.171
