N=100 	 R=1000000 	 s=1 	 Save [density, Z, rho_t, like/unlike, events per sweep]
0.0001351 	 1.0005171 	 1.1027 	 1.006 	 10.126
0.0132540 	 1.1626974 	 12.2102 	 0.951 	 46.769
0.0260798 	 1.1528683 	 22.7722 	 1.004 	 78.940
0.0384938 	 1.1917258 	 33.4233 	 1.013 	 88.238
0.0505035 	 1.2394767 	 43.7837 	 1.016 	 92.010
0.0621542 	 1.2921371 	 54.2647 	 1.017 	 93.821
0.0734522 	 1.3481384 	 64.4846 	 1.019 	 94.747
0.0844166 	 1.4075609 	 74.9586 	 1.020 	 95.247
0.0950558 	 1.4695034 	 85.9534 	 1.021 	 95.524
0.1053957 	 1.5337573 	 95.6801 	 1.022 	 95.707
0.1154405 	 1.6000563 	 106.5641 	 1.024 	 95.734
0.1252027 	 1.6683708 	 116.3164 	 1.024 	 95.793
0.1347043 	 1.7386749 	 127.2211 	 1.026 	 95.837
0.1439416 	 1.8101598 	 137.7330 	 1.027 	 95.886
0.1529366 	 1.8840826 	 147.7263 	 1.028 	 95.857
0.1616977 	 1.9598691 	 157.7991 	 1.030 	 95.845
0.1702254 	 2.0370153 	 168.8989 	 1.031 	 95.832
0.1785374 	 2.1157286 	 179.7637 	 1.032 	 95.799
0.1866365 	 2.1962338 	 190.2518 	 1.034 	 95.788
0.1945413 	 2.2784258 	 201.2336 	 1.035 	 95.743
0.2022486 	 2.3619244 	 211.3064 	 1.036 	 95.743
0.2097719 	 2.4474395 	 221.4557 	 1.038 	 95.732
0.2171147 	 2.5340316 	 230.0623 	 1.038 	 95.711
0.2242871 	 2.6225001 	 239.7333 	 1.040 	 95.672
0.2312977 	 2.7127705 	 249.5860 	 1.041 	 95.676
0.2381502 	 2.8037888 	 259.8314 	 1.042 	 95.642
0.2448459 	 2.8971056 	 269.3263 	 1.044 	 95.637
0.2513934 	 2.9913254 	 279.7038 	 1.044 	 95.604
0.2577960 	 3.0878903 	 288.4462 	 1.045 	 95.580
0.2640609 	 3.1859494 	 297.2257 	 1.047 	 95.592
0.2701876 	 3.2847497 	 306.4015 	 1.048 	 95.566
0.2761912 	 3.3866343 	 317.8343 	 1.049 	 95.589
0.2820647 	 3.4881605 	 329.0992 	 1.049 	 95.567
0.2878170 	 3.5915878 	 339.3112 	 1.050 	 95.542
0.2934508 	 3.6977418 	 350.3022 	 1.052 	 95.539
0.2989749 	 3.8052719 	 359.1246 	 1.053 	 95.533
0.3043862 	 3.9134816 	 368.9786 	 1.054 	 95.532
0.3096936 	 4.0234917 	 379.9588 	 1.054 	 95.509
0.3148945 	 4.1343453 	 389.6631 	 1.056 	 95.458
0.3199993 	 4.2471709 	 400.3550 	 1.057 	 95.472
0.3250069 	 4.3612674 	 411.2250 	 1.058 	 95.462
0.3299206 	 4.4781790 	 422.5446 	 1.059 	 95.453
0.3347380 	 4.5944589 	 431.8103 	 1.060 	 95.431
0.3394667 	 4.7126315 	 442.0633 	 1.061 	 95.419
0.3441101 	 4.8342179 	 454.9617 	 1.061 	 95.444
0.3486725 	 4.9549768 	 467.3099 	 1.062 	 95.389
0.3531537 	 5.0788420 	 476.2629 	 1.063 	 95.374
0.3575625 	 5.2029980 	 489.0707 	 1.064 	 95.373
0.3618891 	 5.3293451 	 496.8311 	 1.065 	 95.354
0.3661401 	 5.4572493 	 507.2751 	 1.066 	 95.364
0.3703183 	 5.5864708 	 519.3739 	 1.067 	 95.366
0.3744232 	 5.7166658 	 529.9301 	 1.067 	 95.345
0.3784603 	 5.8487255 	 540.7820 	 1.068 	 95.325
0.3824292 	 5.9821049 	 550.9565 	 1.068 	 95.328
0.3863342 	 6.1166975 	 561.5866 	 1.069 	 95.304
0.3901747 	 6.2533141 	 574.6887 	 1.070 	 95.318
0.3939540 	 6.3891331 	 581.9767 	 1.071 	 95.294
0.3976722 	 6.5287878 	 596.2572 	 1.072 	 95.300
0.4013349 	 6.6700492 	 604.1726 	 1.073 	 95.301
0.4049418 	 6.8108372 	 614.8562 	 1.073 	 95.275
0.4084875 	 6.9529628 	 625.9006 	 1.074 	 95.279
0.4119794 	 7.0974798 	 641.4855 	 1.075 	 95.238
0.4154169 	 7.2437277 	 654.3678 	 1.076 	 95.241
0.4188053 	 7.3920559 	 667.4789 	 1.077 	 95.208
0.4221415 	 7.5395344 	 678.7555 	 1.076 	 95.210
0.4254289 	 7.6905435 	 691.6678 	 1.077 	 95.203
0.4286667 	 7.8435295 	 705.8336 	 1.077 	 95.237
0.4318564 	 7.9956478 	 721.5089 	 1.078 	 95.220
0.4350011 	 8.1502589 	 727.3794 	 1.079 	 95.200
0.4381006 	 8.3050157 	 735.8077 	 1.080 	 95.181
0.4411538 	 8.4608731 	 747.8644 	 1.079 	 95.158
0.4441642 	 8.6222828 	 755.1208 	 1.080 	 95.180
0.4471332 	 8.7806310 	 769.7538 	 1.080 	 95.192
0.4500592 	 8.9409727 	 779.4366 	 1.081 	 95.173
0.4529458 	 9.1024296 	 801.1098 	 1.081 	 95.147
0.4557939 	 9.2661328 	 809.4103 	 1.082 	 95.153
0.4586017 	 9.4307504 	 816.1676 	 1.081 	 95.129
0.4613747 	 9.5978691 	 823.6608 	 1.082 	 95.134
0.4641106 	 9.7647973 	 840.3770 	 1.083 	 95.123
0.4668080 	 9.9359655 	 852.4039 	 1.083 	 95.110
0.4694692 	 10.1080175 	 852.9947 	 1.083 	 95.153
0.4720965 	 10.2761500 	 865.3774 	 1.083 	 95.098
0.4746909 	 10.4496637 	 876.3581 	 1.084 	 95.112
0.4772499 	 10.6230787 	 885.6334 	 1.084 	 95.096
0.4797756 	 10.8000899 	 896.9129 	 1.085 	 95.088
0.4822690 	 10.9776627 	 912.5247 	 1.085 	 95.112
0.4847330 	 11.1534081 	 927.3756 	 1.084 	 95.075
0.4871656 	 11.3356256 	 930.5450 	 1.085 	 95.069
0.4895696 	 11.5186249 	 933.4795 	 1.086 	 95.090
0.4919428 	 11.6999607 	 945.9385 	 1.087 	 95.077
0.4942867 	 11.8842878 	 954.4598 	 1.086 	 95.110
0.4966028 	 12.0683141 	 973.9037 	 1.086 	 95.069
0.4988899 	 12.2521076 	 989.4149 	 1.087 	 95.037
0.5011511 	 12.4434087 	 1002.2606 	 1.085 	 95.045
0.5033850 	 12.6325556 	 1013.6431 	 1.086 	 95.046
0.5055901 	 12.8240239 	 1028.4593 	 1.087 	 95.045
0.5077710 	 13.0135734 	 1043.9017 	 1.087 	 95.059
0.5099263 	 13.2094132 	 1059.4072 	 1.087 	 95.035
0.5120572 	 13.4010718 	 1068.3994 	 1.087 	 95.018
0.5141629 	 13.6045309 	 1077.2163 	 1.087 	 95.006
0.5162441 	 13.7991616 	 1086.7337 	 1.087 	 95.047
0.5183020 	 13.9994025 	 1100.4627 	 1.087 	 95.007
0.5203369 	 14.2021780 	 1101.4668 	 1.087 	 95.020
0.5223490 	 14.3998411 	 1110.7153 	 1.088 	 94.992
0.5243369 	 14.6003840 	 1121.7016 	 1.087 	 94.974
0.5263033 	 14.8109936 	 1129.6867 	 1.088 	 94.992
0.5282482 	 15.0143787 	 1139.6700 	 1.089 	 94.972
0.5301695 	 15.2221047 	 1153.6623 	 1.088 	 94.991
0.5320706 	 15.4320448 	 1170.1736 	 1.088 	 94.963
0.5339518 	 15.6399658 	 1185.1481 	 1.089 	 94.937
0.5358122 	 15.8564241 	 1204.7553 	 1.090 	 94.973
0.5376523 	 16.0712515 	 1224.6168 	 1.090 	 94.982
0.5394725 	 16.2788379 	 1240.2444 	 1.088 	 94.943
0.5412749 	 16.4982713 	 1260.6704 	 1.089 	 94.957
0.5430570 	 16.7191230 	 1273.8968 	 1.088 	 94.958
0.5448202 	 16.9412062 	 1293.8966 	 1.089 	 94.944
0.5465633 	 17.1604094 	 1324.3079 	 1.088 	 94.936
0.5482887 	 17.3866303 	 1350.2312 	 1.087 	 94.930
0.5499969 	 17.6086511 	 1378.5385 	 1.088 	 94.924
0.5516872 	 17.8313680 	 1430.1043 	 1.087 	 94.902
0.5533587 	 18.0638399 	 1492.3279 	 1.087 	 94.912
0.5550143 	 18.2881807 	 1560.7891 	 1.087 	 94.911
0.5566515 	 18.5207411 	 1659.0017 	 1.087 	 94.895
0.5582721 	 18.7541262 	 1794.7223 	 1.087 	 94.899
0.5598751 	 18.9904485 	 2005.0101 	 1.085 	 94.906
0.5614631 	 19.2225765 	 2295.1131 	 1.084 	 94.849
0.5630341 	 19.4655286 	 2691.4018 	 1.083 	 94.849
0.5645902 	 19.7081166 	 3185.0672 	 1.081 	 94.868
0.5661303 	 19.9542219 	 4013.2319 	 1.080 	 94.879
0.5676540 	 20.2068935 	 5224.9363 	 1.078 	 94.864
0.5691623 	 20.4545184 	 6945.6297 	 1.077 	 94.843
0.5706559 	 20.7109638 	 9158.0565 	 1.075 	 94.854
0.5721329 	 20.9728808 	 12220.8706 	 1.073 	 94.864
0.5735943 	 21.2352063 	 16712.9122 	 1.071 	 94.849
0.5750409 	 21.5054113 	 22176.8826 	 1.067 	 94.821
0.5764713 	 21.7923465 	 29109.7985 	 1.066 	 94.819
0.5778861 	 22.0805245 	 37712.3770 	 1.063 	 94.811
0.5792852 	 22.3794317 	 47557.2744 	 1.061 	 94.807
0.5806659 	 22.6915978 	 60165.6449 	 1.058 	 94.831
0.5820303 	 23.0118566 	 74982.7370 	 1.056 	 94.792
0.5833788 	 23.3458791 	 92036.4448 	 1.055 	 94.804
0.5847084 	 23.6890143 	 109458.1413 	 1.053 	 94.787
0.5860213 	 24.0461247 	 127896.9163 	 1.052 	 94.801
0.5873172 	 24.4094044 	 146577.1133 	 1.051 	 94.782
0.5885958 	 24.7845456 	 165184.6263 	 1.049 	 94.758
0.5898569 	 25.1697817 	 184805.2069 	 1.048 	 94.772
0.5910996 	 25.5726518 	 201831.9927 	 1.049 	 94.768
0.5923240 	 25.9716668 	 221558.5301 	 1.048 	 94.764
0.5935323 	 26.3852746 	 238264.5891 	 1.049 	 94.760
0.5947218 	 26.8173748 	 253491.5627 	 1.048 	 94.788
0.5958944 	 27.2410790 	 266523.5998 	 1.050 	 94.733
0.5970509 	 27.6892224 	 276255.7772 	 1.051 	 94.748
0.5981902 	 28.1477446 	 286507.5435 	 1.053 	 94.770
0.5993120 	 28.6015335 	 288348.9228 	 1.055 	 94.738
0.6004165 	 29.0593799 	 291731.9898 	 1.058 	 94.722
0.6015063 	 29.5349030 	 290594.3203 	 1.061 	 94.731
0.6025804 	 29.9963621 	 290177.5794 	 1.064 	 94.706
0.6036383 	 30.4766914 	 289658.3238 	 1.067 	 94.707
0.6046813 	 30.9539765 	 285286.5851 	 1.072 	 94.708
0.6057094 	 31.4381083 	 278599.9760 	 1.076 	 94.732
0.6067228 	 31.9234031 	 268841.9039 	 1.081 	 94.701
0.6077220 	 32.4149377 	 256890.9806 	 1.087 	 94.721
0.6087075 	 32.9239644 	 244725.3853 	 1.093 	 94.751
0.6096795 	 33.3994010 	 232174.7502 	 1.099 	 94.701
0.6106379 	 33.9068617 	 220410.6009 	 1.106 	 94.760
0.6115839 	 34.4027486 	 210874.3691 	 1.111 	 94.757
0.6125168 	 34.9046110 	 204579.2097 	 1.118 	 94.790
0.6134379 	 35.4179252 	 207453.9214 	 1.124 	 94.843
0.6143455 	 35.9296044 	 220815.5796 	 1.129 	 94.819
0.6152419 	 36.4535348 	 244715.1167 	 1.133 	 94.884
0.6161266 	 36.9833877 	 277412.8692 	 1.137 	 94.869
0.6169976 	 37.5505482 	 317783.6005 	 1.141 	 94.906
0.6178575 	 38.1473037 	 365620.9222 	 1.142 	 94.926
0.6187033 	 38.7670510 	 412570.4908 	 1.145 	 94.947
0.6195375 	 39.4218592 	 462140.0762 	 1.145 	 95.001
0.6203582 	 40.1077504 	 506007.5241 	 1.146 	 94.985
0.6211656 	 40.8191427 	 550268.3103 	 1.146 	 94.978
0.6219591 	 41.5565768 	 584951.1124 	 1.146 	 94.988
0.6227386 	 42.3207260 	 619144.8873 	 1.145 	 94.992
0.6235048 	 43.1188311 	 647478.5791 	 1.146 	 94.991
0.6242575 	 43.9300561 	 673087.2595 	 1.145 	 94.980
0.6249969 	 44.7630493 	 700166.8632 	 1.144 	 94.986
0.6257221 	 45.6457197 	 724340.3530 	 1.144 	 94.969
0.6264344 	 46.5246600 	 747326.3262 	 1.145 	 94.976
0.6271337 	 47.4207154 	 768807.7344 	 1.144 	 94.934
0.6278200 	 48.3610220 	 786210.4546 	 1.143 	 94.980
0.6284936 	 49.3138181 	 803851.9814 	 1.143 	 94.934
0.6291543 	 50.2983097 	 821858.2601 	 1.143 	 94.953
0.6298033 	 51.2899082 	 838482.8962 	 1.143 	 94.912
