N=100 	 R=1000000 	 s=1 	 Save [density, Z, rho_t, like/unlike, events per sweep]
0.0001342 	 1.0005103 	 1.1026 	 1.010 	 10.124
0.0132473 	 1.1627479 	 12.2222 	 0.950 	 46.744
0.0260784 	 1.1527753 	 22.8919 	 1.004 	 78.918
0.0384885 	 1.1917736 	 33.3069 	 1.012 	 88.236
0.0505068 	 1.2395042 	 43.7830 	 1.016 	 91.968
0.0621602 	 1.2922005 	 54.0394 	 1.018 	 93.804
0.0734537 	 1.3482418 	 64.5115 	 1.019 	 94.777
0.0844084 	 1.4074414 	 75.2688 	 1.020 	 95.225
0.0950503 	 1.4694172 	 85.8150 	 1.021 	 95.539
0.1053827 	 1.5334274 	 96.2191 	 1.022 	 95.658
0.1154238 	 1.5999210 	 106.9695 	 1.024 	 95.738
0.1251912 	 1.6682454 	 116.9224 	 1.024 	 95.786
0.1346862 	 1.7384795 	 127.0312 	 1.026 	 95.827
0.1439263 	 1.8099541 	 137.2872 	 1.027 	 95.868
0.1529230 	 1.8840261 	 148.2423 	 1.029 	 95.867
0.1616792 	 1.9594783 	 159.0148 	 1.030 	 95.807
0.1702070 	 2.0367089 	 169.8264 	 1.030 	 95.806
0.1785183 	 2.1155785 	 181.0622 	 1.032 	 95.814
0.1866212 	 2.1960668 	 191.9007 	 1.034 	 95.756
0.1945211 	 2.2778563 	 203.3143 	 1.035 	 95.749
0.2022276 	 2.3619982 	 214.1431 	 1.036 	 95.774
0.2097543 	 2.4469373 	 225.5328 	 1.037 	 95.707
0.2171036 	 2.5341399 	 236.0817 	 1.038 	 95.723
0.2242763 	 2.6219462 	 247.5216 	 1.040 	 95.671
0.2312860 	 2.7121203 	 257.3181 	 1.041 	 95.671
0.2381397 	 2.8038498 	 267.4719 	 1.042 	 95.655
0.2448316 	 2.8969513 	 279.1188 	 1.043 	 95.658
0.2513756 	 2.9918341 	 292.0153 	 1.044 	 95.617
0.2577791 	 3.0880135 	 303.8403 	 1.045 	 95.621
0.2640483 	 3.1861553 	 313.6505 	 1.046 	 95.618
0.2701749 	 3.2850422 	 322.3817 	 1.048 	 95.602
0.2761734 	 3.3855894 	 334.3522 	 1.049 	 95.563
0.2820499 	 3.4884503 	 345.1305 	 1.050 	 95.573
0.2878023 	 3.5915143 	 354.6785 	 1.051 	 95.538
0.2934358 	 3.6976438 	 364.9474 	 1.052 	 95.537
0.2989570 	 3.8043321 	 379.3520 	 1.052 	 95.514
0.3043731 	 3.9125604 	 390.1250 	 1.054 	 95.511
0.3096824 	 4.0227761 	 397.7093 	 1.055 	 95.496
0.3148891 	 4.1335043 	 404.8866 	 1.056 	 95.462
0.3199943 	 4.2466204 	 417.3461 	 1.057 	 95.448
0.3250045 	 4.3620369 	 423.1020 	 1.058 	 95.482
0.3299166 	 4.4770819 	 433.6084 	 1.059 	 95.429
0.3347344 	 4.5946150 	 441.4493 	 1.060 	 95.434
0.3394706 	 4.7131590 	 450.5533 	 1.060 	 95.409
0.3441116 	 4.8333517 	 457.7678 	 1.062 	 95.402
0.3486730 	 4.9556719 	 468.0660 	 1.062 	 95.408
0.3531550 	 5.0785017 	 477.4109 	 1.064 	 95.403
0.3575593 	 5.2041460 	 490.8079 	 1.064 	 95.391
0.3618860 	 5.3291081 	 502.7514 	 1.065 	 95.364
0.3661364 	 5.4561123 	 513.6924 	 1.066 	 95.325
0.3703152 	 5.5857687 	 527.4569 	 1.067 	 95.319
0.3744225 	 5.7142326 	 536.0138 	 1.067 	 95.317
0.3784599 	 5.8480011 	 550.9320 	 1.068 	 95.313
0.3824322 	 5.9820978 	 562.9783 	 1.069 	 95.334
0.3863387 	 6.1155885 	 571.4331 	 1.069 	 95.300
0.3901810 	 6.2537185 	 581.3485 	 1.070 	 95.341
0.3939604 	 6.3898940 	 591.8072 	 1.071 	 95.291
0.3976807 	 6.5289430 	 600.8297 	 1.072 	 95.290
0.4013383 	 6.6690447 	 611.1117 	 1.072 	 95.257
0.4049426 	 6.8103891 	 617.6438 	 1.073 	 95.265
0.4084931 	 6.9535449 	 628.1621 	 1.074 	 95.270
0.4119882 	 7.0991513 	 635.1753 	 1.075 	 95.251
0.4154277 	 7.2435040 	 646.1882 	 1.075 	 95.236
0.4188151 	 7.3924976 	 656.1440 	 1.075 	 95.226
0.4221513 	 7.5417930 	 671.8125 	 1.077 	 95.209
0.4254363 	 7.6911944 	 681.7151 	 1.077 	 95.214
0.4286712 	 7.8436308 	 691.6019 	 1.077 	 95.202
0.4318638 	 7.9961523 	 706.1282 	 1.079 	 95.207
0.4350100 	 8.1499247 	 720.1083 	 1.077 	 95.188
0.4381103 	 8.3052553 	 733.1966 	 1.079 	 95.198
0.4411625 	 8.4623429 	 740.1853 	 1.079 	 95.185
0.4441739 	 8.6207009 	 751.1848 	 1.080 	 95.186
0.4471411 	 8.7797307 	 761.2230 	 1.081 	 95.162
0.4500695 	 8.9408505 	 773.2571 	 1.081 	 95.139
0.4529549 	 9.1033280 	 789.2665 	 1.081 	 95.165
0.4558028 	 9.2663802 	 802.6818 	 1.082 	 95.167
0.4586114 	 9.4336603 	 815.7502 	 1.082 	 95.168
0.4613831 	 9.5993224 	 823.8113 	 1.082 	 95.165
0.4641169 	 9.7669004 	 836.9306 	 1.083 	 95.147
0.4668153 	 9.9351831 	 849.2810 	 1.083 	 95.143
0.4694772 	 10.1048073 	 857.8202 	 1.084 	 95.104
0.4721066 	 10.2761333 	 864.4607 	 1.084 	 95.114
0.4747003 	 10.4508325 	 874.9377 	 1.085 	 95.093
0.4772602 	 10.6247462 	 881.8853 	 1.084 	 95.103
0.4797882 	 10.8036321 	 893.8160 	 1.084 	 95.139
0.4822846 	 10.9770872 	 909.2806 	 1.084 	 95.066
0.4847473 	 11.1569564 	 913.0511 	 1.085 	 95.085
0.4871802 	 11.3353558 	 919.6782 	 1.085 	 95.069
0.4895828 	 11.5185782 	 923.3334 	 1.085 	 95.089
0.4919570 	 11.7014245 	 935.4471 	 1.085 	 95.070
0.4943007 	 11.8816429 	 948.7759 	 1.085 	 95.056
0.4966174 	 12.0703148 	 963.6409 	 1.085 	 95.042
0.4989045 	 12.2552368 	 976.2751 	 1.085 	 95.058
0.5011663 	 12.4435399 	 991.6996 	 1.086 	 95.049
0.5033995 	 12.6332709 	 1009.3445 	 1.087 	 95.048
0.5056056 	 12.8224466 	 1019.0362 	 1.086 	 95.049
0.5077870 	 13.0209170 	 1030.7673 	 1.087 	 95.045
0.5099427 	 13.2095998 	 1034.6999 	 1.087 	 95.026
0.5120720 	 13.4057411 	 1044.9661 	 1.087 	 95.026
0.5141772 	 13.6022115 	 1051.2820 	 1.088 	 95.046
0.5162597 	 13.8026269 	 1077.4301 	 1.087 	 95.003
0.5183173 	 13.9979406 	 1091.7828 	 1.087 	 95.028
0.5203504 	 14.1990120 	 1098.9246 	 1.088 	 94.992
0.5223612 	 14.3976640 	 1102.9889 	 1.088 	 94.981
0.5243503 	 14.6012749 	 1119.9245 	 1.088 	 94.976
0.5263177 	 14.8085276 	 1128.6963 	 1.087 	 94.971
0.5282621 	 15.0163288 	 1139.1420 	 1.087 	 94.982
0.5301856 	 15.2220896 	 1149.1108 	 1.087 	 94.969
0.5320868 	 15.4304438 	 1173.4631 	 1.086 	 94.972
0.5339671 	 15.6412218 	 1184.8761 	 1.087 	 94.977
0.5358284 	 15.8564862 	 1199.6152 	 1.087 	 94.984
0.5376693 	 16.0720060 	 1205.4751 	 1.086 	 94.976
0.5394896 	 16.2869517 	 1217.8937 	 1.087 	 94.959
0.5412900 	 16.5015746 	 1239.9606 	 1.087 	 94.958
0.5430721 	 16.7186182 	 1251.7273 	 1.086 	 94.945
0.5448345 	 16.9432566 	 1253.0549 	 1.086 	 94.927
0.5465776 	 17.1612601 	 1279.7048 	 1.085 	 94.939
0.5483025 	 17.3825800 	 1304.5606 	 1.085 	 94.926
0.5500098 	 17.6119091 	 1327.1863 	 1.085 	 94.951
0.5516987 	 17.8395328 	 1363.4794 	 1.086 	 94.959
0.5533718 	 18.0639289 	 1409.7581 	 1.085 	 94.902
0.5550266 	 18.2955508 	 1468.1315 	 1.084 	 94.901
0.5566642 	 18.5251406 	 1548.6670 	 1.084 	 94.905
0.5582847 	 18.7643439 	 1654.5577 	 1.084 	 94.899
0.5598894 	 18.9928288 	 1808.7477 	 1.083 	 94.878
0.5614779 	 19.2290517 	 2050.2894 	 1.083 	 94.891
0.5630493 	 19.4669539 	 2377.4790 	 1.083 	 94.876
0.5646070 	 19.7073719 	 2793.9974 	 1.082 	 94.857
0.5661457 	 19.9542750 	 3363.2909 	 1.082 	 94.855
0.5676697 	 20.2036989 	 4223.2099 	 1.081 	 94.849
0.5691776 	 20.4526304 	 5370.8165 	 1.081 	 94.842
0.5706694 	 20.7124986 	 6917.1759 	 1.080 	 94.821
0.5721469 	 20.9760543 	 8946.1544 	 1.079 	 94.812
0.5736077 	 21.2511501 	 11586.3019 	 1.078 	 94.779
0.5750528 	 21.5187057 	 14963.5438 	 1.078 	 94.773
0.5764829 	 21.7971479 	 18760.4224 	 1.078 	 94.735
0.5778958 	 22.0851159 	 23188.3588 	 1.078 	 94.753
0.5792938 	 22.3906980 	 27797.1581 	 1.078 	 94.757
0.5806751 	 22.6854098 	 33597.2993 	 1.078 	 94.714
0.5820407 	 22.9990557 	 38983.6246 	 1.078 	 94.698
0.5833897 	 23.3299759 	 45245.4265 	 1.079 	 94.715
0.5847212 	 23.6495167 	 51064.1405 	 1.081 	 94.692
0.5860374 	 24.0016495 	 56728.0080 	 1.083 	 94.697
0.5873363 	 24.3422669 	 61882.3851 	 1.085 	 94.672
0.5886188 	 24.7006714 	 67738.9966 	 1.088 	 94.732
0.5898847 	 25.0521174 	 73032.0529 	 1.091 	 94.724
0.5911348 	 25.4084971 	 79817.8107 	 1.093 	 94.727
0.5923697 	 25.7737376 	 89039.9091 	 1.096 	 94.752
0.5935879 	 26.1284624 	 99944.1803 	 1.099 	 94.760
0.5947914 	 26.5030488 	 115601.5954 	 1.104 	 94.829
0.5959807 	 26.8855849 	 135545.5320 	 1.107 	 94.866
0.5971549 	 27.2617424 	 163706.7283 	 1.111 	 94.916
0.5983148 	 27.6543777 	 195845.0812 	 1.114 	 94.986
0.5994599 	 28.0448082 	 237272.7273 	 1.118 	 95.036
0.6005891 	 28.4490400 	 285008.9897 	 1.121 	 95.090
0.6017044 	 28.8702152 	 336234.1738 	 1.124 	 95.153
0.6028043 	 29.3165743 	 385689.2260 	 1.126 	 95.178
0.6038877 	 29.7838783 	 433546.2489 	 1.129 	 95.212
0.6049560 	 30.2783681 	 481264.6460 	 1.131 	 95.280
0.6060073 	 30.7802055 	 527417.9260 	 1.133 	 95.261
0.6070425 	 31.2997034 	 569800.7157 	 1.134 	 95.257
0.6080628 	 31.8376112 	 611003.4705 	 1.136 	 95.277
0.6090661 	 32.4058555 	 643662.6116 	 1.137 	 95.318
0.6100522 	 32.9902857 	 672124.8529 	 1.138 	 95.285
0.6110225 	 33.5781722 	 702817.2826 	 1.139 	 95.281
0.6119757 	 34.2036988 	 728251.0578 	 1.141 	 95.269
0.6129127 	 34.8402026 	 750244.1994 	 1.142 	 95.267
0.6138339 	 35.4879401 	 771471.4563 	 1.143 	 95.272
0.6147393 	 36.1623739 	 785521.6927 	 1.144 	 95.268
0.6156289 	 36.8427983 	 801657.0815 	 1.146 	 95.257
0.6165017 	 37.5441935 	 816006.5830 	 1.148 	 95.213
0.6173595 	 38.2669974 	 827475.0260 	 1.149 	 95.205
0.6182018 	 39.0061606 	 840165.9932 	 1.151 	 95.198
0.6190286 	 39.7530933 	 849632.0572 	 1.152 	 95.165
0.6198405 	 40.5188755 	 854612.0281 	 1.154 	 95.113
0.6206375 	 41.3106903 	 864217.0405 	 1.156 	 95.089
0.6214202 	 42.1204148 	 874563.8317 	 1.158 	 95.086
0.6221878 	 42.9568006 	 877621.2399 	 1.159 	 95.067
0.6229418 	 43.7986423 	 881320.1927 	 1.161 	 95.047
0.6236823 	 44.6385931 	 885438.1144 	 1.164 	 94.986
0.6244085 	 45.5286639 	 882144.6307 	 1.165 	 94.980
0.6251203 	 46.4273652 	 877867.1207 	 1.168 	 94.951
0.6258195 	 47.3546953 	 872564.4706 	 1.169 	 94.915
0.6265052 	 48.2812150 	 867637.3122 	 1.173 	 94.861
0.6271780 	 49.2398315 	 857855.5641 	 1.175 	 94.851
0.6278385 	 50.2416903 	 845440.7666 	 1.178 	 94.852
0.6284862 	 51.2252748 	 829327.0006 	 1.180 	 94.779
0.6291222 	 52.2441054 	 813566.7265 	 1.184 	 94.737
0.6297459 	 53.2706853 	 791209.9557 	 1.187 	 94.720
