N=100 	 R=1000000 	 s=1 	 Save [density, Z, rho_t, like/unlike, events per sweep]
0.0001344 	 1.0005113 	 1.1027 	 1.011 	 10.124
0.0132486 	 1.1626692 	 12.2215 	 0.950 	 46.773
0.0260729 	 1.1527807 	 22.9384 	 1.005 	 78.903
0.0384932 	 1.1917468 	 33.5588 	 1.013 	 88.252
0.0505010 	 1.2395377 	 43.9472 	 1.016 	 92.001
0.0621474 	 1.2921143 	 54.2627 	 1.017 	 93.785
0.0734516 	 1.3481548 	 64.7878 	 1.019 	 94.784
0.0844070 	 1.4075518 	 75.7723 	 1.020 	 95.258
0.0950569 	 1.4695167 	 86.3058 	 1.021 	 95.530
0.1053969 	 1.5336868 	 96.6734 	 1.023 	 95.653
0.1154388 	 1.6000476 	 107.1614 	 1.024 	 95.753
0.1252032 	 1.6683790 	 117.3572 	 1.025 	 95.814
0.1346958 	 1.7384234 	 128.3437 	 1.025 	 95.801
0.1439413 	 1.8099453 	 138.4551 	 1.027 	 95.884
0.1529330 	 1.8840563 	 148.6955 	 1.029 	 95.804
0.1616944 	 1.9598168 	 159.4796 	 1.030 	 95.834
0.1702226 	 2.0369529 	 170.9326 	 1.031 	 95.816
0.1785317 	 2.1157310 	 181.0794 	 1.032 	 95.803
0.1866309 	 2.1962316 	 192.0197 	 1.034 	 95.782
0.1945403 	 2.2780420 	 202.0650 	 1.035 	 95.733
0.2022600 	 2.3619373 	 211.9737 	 1.037 	 95.725
0.2097848 	 2.4473329 	 223.1280 	 1.037 	 95.704
0.2171352 	 2.5346362 	 233.4311 	 1.039 	 95.714
0.2243103 	 2.6225367 	 242.8241 	 1.039 	 95.676
0.2313134 	 2.7126937 	 253.3698 	 1.041 	 95.673
0.2381633 	 2.8039466 	 263.2978 	 1.042 	 95.643
0.2448560 	 2.8975758 	 273.0403 	 1.044 	 95.662
0.2514015 	 2.9918296 	 282.2970 	 1.045 	 95.631
0.2578056 	 3.0881659 	 291.4398 	 1.045 	 95.598
0.2640730 	 3.1864057 	 300.7402 	 1.046 	 95.576
0.2702055 	 3.2852978 	 312.2424 	 1.047 	 95.573
0.2762038 	 3.3862804 	 322.6143 	 1.049 	 95.573
0.2820832 	 3.4885338 	 333.1619 	 1.050 	 95.542
0.2878331 	 3.5923732 	 344.8416 	 1.050 	 95.542
0.2934688 	 3.6978611 	 354.3213 	 1.051 	 95.547
0.2989891 	 3.8044430 	 364.0995 	 1.053 	 95.518
0.3044016 	 3.9131741 	 375.4538 	 1.053 	 95.520
0.3097076 	 4.0228053 	 386.7033 	 1.055 	 95.489
0.3149104 	 4.1342857 	 397.1970 	 1.055 	 95.487
0.3200152 	 4.2474233 	 407.2321 	 1.057 	 95.470
0.3250200 	 4.3615229 	 419.0887 	 1.058 	 95.455
0.3299309 	 4.4780705 	 431.1091 	 1.059 	 95.449
0.3347489 	 4.5946504 	 440.9036 	 1.059 	 95.435
0.3394820 	 4.7134609 	 454.8966 	 1.061 	 95.418
0.3441256 	 4.8334834 	 463.1263 	 1.061 	 95.418
0.3486828 	 4.9560667 	 471.5784 	 1.062 	 95.395
0.3531657 	 5.0786727 	 485.2120 	 1.063 	 95.361
0.3575627 	 5.2043446 	 498.3487 	 1.064 	 95.395
0.3618883 	 5.3293303 	 510.9958 	 1.065 	 95.373
0.3661415 	 5.4580138 	 520.2746 	 1.066 	 95.351
0.3703191 	 5.5856263 	 522.9388 	 1.067 	 95.331
0.3744255 	 5.7166443 	 535.0646 	 1.068 	 95.344
0.3784641 	 5.8490681 	 543.3657 	 1.069 	 95.338
0.3824350 	 5.9820418 	 554.7637 	 1.069 	 95.335
0.3863408 	 6.1163453 	 564.6596 	 1.070 	 95.334
0.3901830 	 6.2515390 	 578.1828 	 1.071 	 95.323
0.3939618 	 6.3907007 	 588.1593 	 1.071 	 95.277
0.3976820 	 6.5282712 	 601.1346 	 1.073 	 95.275
0.4013429 	 6.6687176 	 609.2621 	 1.073 	 95.289
0.4049472 	 6.8120637 	 622.5176 	 1.073 	 95.265
0.4084964 	 6.9549940 	 632.1667 	 1.074 	 95.281
0.4119874 	 7.0976323 	 638.1755 	 1.075 	 95.234
0.4154247 	 7.2445978 	 645.8730 	 1.074 	 95.246
0.4188105 	 7.3930263 	 655.0584 	 1.075 	 95.242
0.4221454 	 7.5399141 	 663.5074 	 1.076 	 95.217
0.4254301 	 7.6906817 	 671.0536 	 1.077 	 95.221
0.4286665 	 7.8397072 	 682.5424 	 1.077 	 95.205
0.4318568 	 7.9968374 	 691.1284 	 1.078 	 95.216
0.4350015 	 8.1498096 	 700.7132 	 1.078 	 95.183
0.4381002 	 8.3065357 	 710.9662 	 1.080 	 95.190
0.4411546 	 8.4601647 	 723.9002 	 1.079 	 95.149
0.4441646 	 8.6205164 	 730.6800 	 1.080 	 95.178
0.4471304 	 8.7773496 	 737.5437 	 1.081 	 95.126
0.4500580 	 8.9400739 	 749.8306 	 1.081 	 95.172
0.4529477 	 9.1044263 	 753.1926 	 1.082 	 95.152
0.4557942 	 9.2674455 	 761.9324 	 1.083 	 95.139
0.4586038 	 9.4318000 	 774.2616 	 1.082 	 95.138
0.4613750 	 9.5964692 	 791.1681 	 1.082 	 95.121
0.4641105 	 9.7683383 	 805.3130 	 1.083 	 95.158
0.4668063 	 9.9359905 	 818.3228 	 1.083 	 95.154
0.4694669 	 10.1047728 	 833.5012 	 1.084 	 95.102
0.4720939 	 10.2739710 	 841.6381 	 1.083 	 95.097
0.4746872 	 10.4503480 	 848.3998 	 1.084 	 95.099
0.4772466 	 10.6252815 	 857.4448 	 1.084 	 95.148
0.4797740 	 10.8015970 	 865.3669 	 1.084 	 95.119
0.4822700 	 10.9746482 	 872.2359 	 1.084 	 95.083
0.4847330 	 11.1551730 	 879.9953 	 1.085 	 95.103
0.4871661 	 11.3355933 	 892.5681 	 1.085 	 95.078
0.4895691 	 11.5199984 	 905.6235 	 1.085 	 95.088
0.4919416 	 11.7023255 	 911.4729 	 1.087 	 95.087
0.4942854 	 11.8838931 	 926.0673 	 1.087 	 95.078
0.4966007 	 12.0684526 	 932.6173 	 1.086 	 95.084
0.4988901 	 12.2537816 	 943.0384 	 1.087 	 95.044
0.5011501 	 12.4402555 	 956.4075 	 1.087 	 95.035
0.5033822 	 12.6317053 	 969.3995 	 1.087 	 95.055
0.5055884 	 12.8238915 	 974.1606 	 1.087 	 95.038
0.5077688 	 13.0167242 	 983.2839 	 1.087 	 95.026
0.5099220 	 13.2087240 	 988.3215 	 1.088 	 95.028
0.5120524 	 13.4017375 	 1001.7029 	 1.088 	 95.058
0.5141584 	 13.5997979 	 1007.4891 	 1.087 	 94.991
0.5162415 	 13.7979317 	 1023.6863 	 1.087 	 95.018
0.5182995 	 13.9957317 	 1044.8902 	 1.088 	 95.009
0.5203339 	 14.1951626 	 1054.2433 	 1.088 	 95.001
0.5223455 	 14.3978840 	 1065.3456 	 1.088 	 95.006
0.5243360 	 14.5999447 	 1066.0967 	 1.088 	 94.987
0.5263038 	 14.8023829 	 1072.5142 	 1.088 	 95.015
0.5282471 	 15.0122111 	 1084.9195 	 1.088 	 94.994
0.5301699 	 15.2210061 	 1094.8715 	 1.088 	 94.986
0.5320718 	 15.4330783 	 1108.9535 	 1.089 	 94.957
0.5339527 	 15.6448371 	 1127.9130 	 1.089 	 94.971
0.5358131 	 15.8592185 	 1136.5556 	 1.088 	 94.990
0.5376526 	 16.0650805 	 1156.3829 	 1.088 	 94.960
0.5394734 	 16.2797855 	 1174.9159 	 1.088 	 94.933
0.5412727 	 16.5000886 	 1192.2514 	 1.088 	 94.956
0.5430541 	 16.7148878 	 1204.5694 	 1.087 	 94.910
0.5448165 	 16.9461007 	 1223.8731 	 1.088 	 94.961
0.5465612 	 17.1598250 	 1239.7759 	 1.088 	 94.926
0.5482870 	 17.3803841 	 1261.7093 	 1.088 	 94.918
0.5499947 	 17.6104782 	 1292.3843 	 1.089 	 94.953
0.5516852 	 17.8255917 	 1328.4282 	 1.088 	 94.883
0.5533574 	 18.0618952 	 1374.9200 	 1.088 	 94.933
0.5550125 	 18.2864640 	 1422.1566 	 1.088 	 94.928
0.5566516 	 18.5140654 	 1490.8100 	 1.088 	 94.910
0.5582740 	 18.7476442 	 1589.0534 	 1.088 	 94.909
0.5598805 	 18.9792285 	 1712.1985 	 1.088 	 94.886
0.5614700 	 19.2158928 	 1844.8712 	 1.088 	 94.909
0.5630441 	 19.4583820 	 2043.7509 	 1.089 	 94.895
0.5646012 	 19.6942860 	 2306.9212 	 1.089 	 94.865
0.5661415 	 19.9355244 	 2679.8817 	 1.088 	 94.827
0.5676674 	 20.1834099 	 3128.5880 	 1.088 	 94.853
0.5691756 	 20.4328780 	 3768.6027 	 1.088 	 94.855
0.5706699 	 20.6800414 	 4623.4053 	 1.087 	 94.831
0.5721503 	 20.9400526 	 5646.8602 	 1.087 	 94.819
0.5736144 	 21.2103885 	 7079.7432 	 1.086 	 94.840
0.5750615 	 21.4670870 	 9067.7196 	 1.084 	 94.805
0.5764953 	 21.7358289 	 11812.2638 	 1.082 	 94.792
0.5779147 	 22.0131048 	 15590.3802 	 1.079 	 94.760
0.5793175 	 22.2872845 	 20631.3159 	 1.075 	 94.749
0.5807061 	 22.5736220 	 27668.0585 	 1.070 	 94.771
0.5820804 	 22.8627798 	 37541.8078 	 1.064 	 94.744
0.5834381 	 23.1615306 	 50850.5611 	 1.057 	 94.744
0.5847809 	 23.4621577 	 66781.3605 	 1.050 	 94.740
0.5861091 	 23.7881341 	 86275.2107 	 1.041 	 94.725
0.5874201 	 24.0935304 	 109670.3369 	 1.031 	 94.681
0.5887164 	 24.4371592 	 136000.5446 	 1.022 	 94.704
0.5899974 	 24.7831372 	 165782.1770 	 1.014 	 94.704
0.5912616 	 25.1338903 	 195687.9819 	 1.004 	 94.654
0.5925108 	 25.5079272 	 227740.8319 	 0.997 	 94.670
0.5937419 	 25.8887029 	 257885.7007 	 0.989 	 94.624
0.5949573 	 26.2845665 	 288400.2792 	 0.981 	 94.607
0.5961545 	 26.6918617 	 313445.0961 	 0.976 	 94.590
0.5973360 	 27.1211365 	 332441.8673 	 0.974 	 94.561
0.5985006 	 27.5641260 	 348095.1386 	 0.971 	 94.575
0.5996485 	 28.0144505 	 358040.8147 	 0.971 	 94.552
0.6007798 	 28.4732238 	 365998.6021 	 0.971 	 94.522
0.6018921 	 28.9401543 	 373193.1373 	 0.973 	 94.496
0.6029882 	 29.4356108 	 379569.5761 	 0.976 	 94.487
0.6040676 	 29.9270699 	 383056.7963 	 0.982 	 94.482
0.6051305 	 30.4351190 	 389030.2109 	 0.988 	 94.432
0.6061772 	 30.9566935 	 397258.2881 	 0.995 	 94.411
0.6072069 	 31.4953775 	 407058.2785 	 1.002 	 94.375
0.6082194 	 32.0442359 	 422111.1764 	 1.011 	 94.346
0.6092166 	 32.6122610 	 442144.0301 	 1.020 	 94.339
0.6101973 	 33.1881613 	 469920.9595 	 1.030 	 94.317
0.6111618 	 33.7853865 	 501898.8710 	 1.040 	 94.289
0.6121100 	 34.3984855 	 536102.9475 	 1.049 	 94.258
0.6130420 	 35.0289107 	 572315.3700 	 1.058 	 94.222
0.6139573 	 35.6935900 	 612046.7768 	 1.066 	 94.265
0.6148576 	 36.3622998 	 649439.1393 	 1.073 	 94.187
0.6157415 	 37.0587048 	 686902.1638 	 1.081 	 94.221
0.6166096 	 37.7606377 	 720344.3504 	 1.086 	 94.137
0.6174618 	 38.4927010 	 756359.9496 	 1.093 	 94.125
0.6182989 	 39.2584196 	 786642.9353 	 1.098 	 94.129
0.6191196 	 40.0305522 	 816596.1468 	 1.103 	 94.100
0.6199253 	 40.8367851 	 839598.6150 	 1.106 	 94.109
0.6207160 	 41.6557453 	 860182.5385 	 1.109 	 94.078
0.6214915 	 42.4910053 	 880776.0254 	 1.113 	 94.084
0.6222532 	 43.3673624 	 896480.9608 	 1.115 	 94.057
0.6229995 	 44.2402552 	 909520.8459 	 1.117 	 94.017
0.6237320 	 45.1731553 	 921255.9593 	 1.119 	 94.059
0.6244492 	 46.0839547 	 930257.8834 	 1.121 	 94.009
0.6251523 	 47.0344752 	 938451.9219 	 1.123 	 94.012
0.6258420 	 48.0024981 	 945655.2368 	 1.124 	 93.990
0.6265182 	 48.9995330 	 950970.7137 	 1.125 	 93.942
0.6271813 	 50.0158239 	 954548.6609 	 1.125 	 93.944
0.6278315 	 51.0640249 	 958842.6782 	 1.126 	 93.969
0.6284685 	 52.1035612 	 961751.6431 	 1.127 	 93.940
0.6290927 	 53.1780992 	 964469.1177 	 1.128 	 93.905
0.6297052 	 54.2808120 	 966631.1934 	 1.128 	 93.937
