N=100 	 R=1000000 	 s=1 	 Save [density, Z, rho_t, like/unlike, events per sweep]
0.0001342 	 1.0005099 	 1.1027 	 1.003 	 10.124
0.0132475 	 1.1627390 	 12.2285 	 0.951 	 46.761
0.0260723 	 1.1528418 	 22.9741 	 1.004 	 78.932
0.0384838 	 1.1918844 	 33.3794 	 1.013 	 88.217
0.0505030 	 1.2395092 	 44.0507 	 1.016 	 92.038
0.0621549 	 1.2920903 	 54.4834 	 1.017 	 93.787
0.0734417 	 1.3480206 	 64.6723 	 1.019 	 94.752
0.0844074 	 1.4075778 	 74.7143 	 1.020 	 95.256
0.0950462 	 1.4693165 	 85.0306 	 1.021 	 95.505
0.1053825 	 1.5336777 	 96.0748 	 1.022 	 95.692
0.1154320 	 1.6001462 	 107.3047 	 1.023 	 95.783
0.1252039 	 1.6682228 	 117.8739 	 1.025 	 95.784
0.1347063 	 1.7385861 	 128.6074 	 1.026 	 95.816
0.1439470 	 1.8100771 	 139.7989 	 1.027 	 95.877
0.1529418 	 1.8840382 	 150.4809 	 1.028 	 95.862
0.1616954 	 1.9596456 	 161.9355 	 1.030 	 95.826
0.1702266 	 2.0371075 	 173.2763 	 1.031 	 95.820
0.1785387 	 2.1158584 	 183.7992 	 1.032 	 95.764
0.1866476 	 2.1961107 	 194.0039 	 1.033 	 95.768
0.1945517 	 2.2784568 	 203.9767 	 1.035 	 95.749
0.2022618 	 2.3623266 	 215.5399 	 1.036 	 95.751
0.2097835 	 2.4473646 	 225.7534 	 1.038 	 95.702
0.2171313 	 2.5339746 	 236.7497 	 1.039 	 95.674
0.2243007 	 2.6226182 	 247.5249 	 1.040 	 95.702
0.2313110 	 2.7126670 	 257.3752 	 1.041 	 95.667
0.2381613 	 2.8045155 	 268.3883 	 1.042 	 95.675
0.2448553 	 2.8969477 	 278.9427 	 1.043 	 95.635
0.2514005 	 2.9917708 	 289.5729 	 1.045 	 95.617
0.2577974 	 3.0879358 	 298.8388 	 1.046 	 95.628
0.2640613 	 3.1858959 	 310.3066 	 1.047 	 95.596
0.2701967 	 3.2857776 	 319.5858 	 1.048 	 95.585
0.2761991 	 3.3860629 	 328.7400 	 1.048 	 95.576
0.2820729 	 3.4881931 	 340.0502 	 1.050 	 95.533
0.2878280 	 3.5924117 	 347.2717 	 1.050 	 95.553
0.2934640 	 3.6980937 	 357.3061 	 1.052 	 95.533
0.2989800 	 3.8048936 	 367.5348 	 1.053 	 95.531
0.3043925 	 3.9134008 	 374.6311 	 1.054 	 95.526
0.3097005 	 4.0232990 	 384.5374 	 1.055 	 95.502
0.3149018 	 4.1348042 	 395.7518 	 1.056 	 95.488
0.3200065 	 4.2472462 	 409.1137 	 1.057 	 95.464
0.3250082 	 4.3614487 	 420.4374 	 1.057 	 95.462
0.3299179 	 4.4762773 	 429.8366 	 1.059 	 95.434
0.3347410 	 4.5944310 	 442.8113 	 1.060 	 95.436
0.3394704 	 4.7129296 	 452.5890 	 1.060 	 95.435
0.3441175 	 4.8346424 	 465.9841 	 1.062 	 95.411
0.3486802 	 4.9551368 	 477.0497 	 1.063 	 95.386
0.3531569 	 5.0791011 	 486.4622 	 1.063 	 95.401
0.3575563 	 5.2033023 	 500.6928 	 1.064 	 95.371
0.3618823 	 5.3298796 	 509.9849 	 1.065 	 95.387
0.3661318 	 5.4567041 	 523.5359 	 1.066 	 95.370
0.3703092 	 5.5859522 	 531.4842 	 1.067 	 95.361
0.3744180 	 5.7160970 	 542.1616 	 1.067 	 95.340
0.3784562 	 5.8476262 	 555.5535 	 1.069 	 95.325
0.3824269 	 5.9826110 	 565.7980 	 1.070 	 95.310
0.3863311 	 6.1168234 	 573.2368 	 1.070 	 95.327
0.3901749 	 6.2520465 	 580.7055 	 1.070 	 95.298
0.3939523 	 6.3887266 	 589.0943 	 1.071 	 95.273
0.3976741 	 6.5289988 	 601.7145 	 1.071 	 95.289
0.4013332 	 6.6675040 	 607.9365 	 1.072 	 95.266
0.4049367 	 6.8115110 	 620.3017 	 1.073 	 95.264
0.4084836 	 6.9532883 	 633.5859 	 1.073 	 95.268
0.4119747 	 7.0968359 	 643.3517 	 1.074 	 95.243
0.4154128 	 7.2441720 	 650.7061 	 1.075 	 95.258
0.4188004 	 7.3923637 	 663.0998 	 1.075 	 95.239
0.4221372 	 7.5402685 	 673.3253 	 1.076 	 95.221
0.4254221 	 7.6911673 	 684.2008 	 1.076 	 95.226
0.4286601 	 7.8391533 	 692.9775 	 1.077 	 95.180
0.4318486 	 7.9949009 	 704.3049 	 1.077 	 95.207
0.4349922 	 8.1476768 	 707.8282 	 1.079 	 95.163
0.4380931 	 8.3048914 	 717.0985 	 1.079 	 95.172
0.4411505 	 8.4603372 	 728.5500 	 1.080 	 95.181
0.4441607 	 8.6195145 	 739.2150 	 1.080 	 95.184
0.4471309 	 8.7778967 	 746.1192 	 1.080 	 95.144
0.4500607 	 8.9423702 	 756.4212 	 1.081 	 95.203
0.4529483 	 9.1030487 	 765.2014 	 1.082 	 95.148
0.4557955 	 9.2652135 	 775.7650 	 1.081 	 95.150
0.4586063 	 9.4322658 	 788.6801 	 1.082 	 95.146
0.4613763 	 9.5963047 	 799.5449 	 1.083 	 95.127
0.4641086 	 9.7660870 	 807.7039 	 1.082 	 95.156
0.4668065 	 9.9367742 	 813.8307 	 1.083 	 95.129
0.4694680 	 10.1060874 	 824.0550 	 1.084 	 95.097
0.4720970 	 10.2770679 	 828.9303 	 1.084 	 95.133
0.4746891 	 10.4497019 	 840.0478 	 1.084 	 95.124
0.4772499 	 10.6254193 	 858.6413 	 1.084 	 95.098
0.4797778 	 10.7993485 	 865.9582 	 1.084 	 95.073
0.4822760 	 10.9791398 	 868.5812 	 1.084 	 95.108
0.4847391 	 11.1540109 	 880.4222 	 1.084 	 95.068
0.4871730 	 11.3359512 	 884.2136 	 1.084 	 95.089
0.4895758 	 11.5176165 	 896.6153 	 1.085 	 95.085
0.4919512 	 11.6959127 	 899.9831 	 1.085 	 95.058
0.4942953 	 11.8858074 	 907.5996 	 1.086 	 95.089
0.4966110 	 12.0701000 	 924.5613 	 1.087 	 95.078
0.4988979 	 12.2575168 	 928.9881 	 1.086 	 95.070
0.5011570 	 12.4438126 	 938.6148 	 1.086 	 95.024
0.5033908 	 12.6315227 	 947.5552 	 1.087 	 95.025
0.5055978 	 12.8206239 	 962.1605 	 1.087 	 94.999
0.5077776 	 13.0150933 	 978.4620 	 1.087 	 95.052
0.5099334 	 13.2092646 	 990.4197 	 1.087 	 95.031
0.5120649 	 13.4022358 	 1001.1876 	 1.088 	 94.999
0.5141708 	 13.6011740 	 1009.8155 	 1.087 	 95.013
0.5162499 	 13.7981523 	 1027.8913 	 1.088 	 95.018
0.5183065 	 14.0000191 	 1040.3281 	 1.087 	 95.006
0.5203403 	 14.1986045 	 1055.3998 	 1.088 	 95.013
0.5223523 	 14.4009349 	 1067.7059 	 1.087 	 94.997
0.5243406 	 14.6017023 	 1088.5918 	 1.088 	 94.998
0.5263061 	 14.8103766 	 1116.0282 	 1.088 	 94.999
0.5282505 	 15.0130690 	 1127.7347 	 1.088 	 94.978
0.5301731 	 15.2178393 	 1145.7053 	 1.088 	 94.966
0.5320741 	 15.4297046 	 1159.0426 	 1.088 	 94.977
0.5339550 	 15.6367828 	 1174.0365 	 1.088 	 94.959
0.5358147 	 15.8479407 	 1186.1068 	 1.087 	 94.950
0.5376551 	 16.0660141 	 1206.7913 	 1.088 	 94.954
0.5394738 	 16.2844635 	 1225.9935 	 1.088 	 94.970
0.5412732 	 16.4951119 	 1244.4625 	 1.088 	 94.938
0.5430543 	 16.7120150 	 1260.8120 	 1.088 	 94.954
0.5448169 	 16.9264792 	 1278.3054 	 1.088 	 94.949
0.5465624 	 17.1531972 	 1302.4872 	 1.087 	 94.940
0.5482893 	 17.3691939 	 1326.1520 	 1.087 	 94.915
0.5499992 	 17.6003960 	 1335.6839 	 1.086 	 94.934
0.5516883 	 17.8205602 	 1369.4885 	 1.085 	 94.911
0.5533625 	 18.0491141 	 1395.3565 	 1.085 	 94.901
0.5550175 	 18.2804412 	 1427.0480 	 1.085 	 94.909
0.5566568 	 18.5115202 	 1466.7270 	 1.085 	 94.924
0.5582788 	 18.7501487 	 1515.0985 	 1.086 	 94.917
0.5598833 	 18.9777512 	 1574.8806 	 1.086 	 94.870
0.5614728 	 19.2220596 	 1659.5998 	 1.085 	 94.857
0.5630451 	 19.4688431 	 1758.8824 	 1.085 	 94.885
0.5646003 	 19.7079616 	 1897.6653 	 1.084 	 94.883
0.5661399 	 19.9519344 	 2091.9168 	 1.083 	 94.897
0.5676644 	 20.1965668 	 2328.7872 	 1.084 	 94.847
0.5691734 	 20.4458195 	 2680.0331 	 1.083 	 94.880
0.5706672 	 20.7041024 	 3226.9359 	 1.082 	 94.850
0.5721456 	 20.9525173 	 4041.5701 	 1.083 	 94.856
0.5736099 	 21.2199725 	 5242.4617 	 1.083 	 94.862
0.5750577 	 21.4826367 	 7038.6250 	 1.083 	 94.899
0.5764905 	 21.7364387 	 10041.1212 	 1.084 	 94.866
0.5779088 	 21.9863440 	 14681.6680 	 1.085 	 94.842
0.5793139 	 22.2535921 	 21539.5525 	 1.086 	 94.871
0.5807059 	 22.5070263 	 31778.1020 	 1.088 	 94.831
0.5820835 	 22.7692208 	 45826.9860 	 1.091 	 94.799
0.5834478 	 23.0471217 	 64762.5710 	 1.093 	 94.809
0.5847994 	 23.3316611 	 87582.4804 	 1.098 	 94.790
0.5861354 	 23.6271980 	 112642.2731 	 1.103 	 94.743
0.5874569 	 23.9466906 	 142126.1426 	 1.107 	 94.784
0.5887620 	 24.2846919 	 171607.3113 	 1.113 	 94.734
0.5900509 	 24.6341618 	 202151.9498 	 1.118 	 94.698
0.5913225 	 25.0112618 	 232300.9188 	 1.123 	 94.723
0.5925789 	 25.3978026 	 259803.8562 	 1.128 	 94.651
0.5938154 	 25.8071003 	 287469.1316 	 1.134 	 94.643
0.5950333 	 26.2290278 	 311834.3398 	 1.140 	 94.618
0.5962343 	 26.6684721 	 335279.4612 	 1.144 	 94.604
0.5974165 	 27.1297463 	 353930.9968 	 1.150 	 94.592
0.5985796 	 27.5999225 	 369428.4644 	 1.154 	 94.568
0.5997245 	 28.0830244 	 381947.6930 	 1.158 	 94.554
0.6008509 	 28.5797281 	 397249.8240 	 1.164 	 94.535
0.6019579 	 29.0914257 	 408988.5960 	 1.168 	 94.529
0.6030485 	 29.6066459 	 420824.2290 	 1.172 	 94.491
0.6041203 	 30.1440990 	 431520.7772 	 1.176 	 94.474
0.6051748 	 30.6940004 	 437509.8076 	 1.180 	 94.489
0.6062112 	 31.2549961 	 443305.1350 	 1.183 	 94.454
0.6072300 	 31.8334700 	 445756.5769 	 1.187 	 94.457
0.6082313 	 32.4283335 	 450247.6320 	 1.191 	 94.458
0.6092163 	 33.0334955 	 455514.0256 	 1.195 	 94.412
0.6101836 	 33.6531172 	 458013.2203 	 1.198 	 94.418
0.6111345 	 34.2920967 	 458785.6219 	 1.203 	 94.433
0.6120680 	 34.9381273 	 463005.4659 	 1.206 	 94.381
0.6129852 	 35.5865240 	 465877.1742 	 1.209 	 94.347
0.6138863 	 36.2671569 	 467502.5402 	 1.214 	 94.339
0.6147713 	 36.9567109 	 469581.3899 	 1.217 	 94.333
0.6156406 	 37.6481111 	 472467.4176 	 1.221 	 94.303
0.6164948 	 38.3595949 	 472561.1646 	 1.225 	 94.296
0.6173337 	 39.0881223 	 471685.0447 	 1.229 	 94.274
0.6181568 	 39.8431239 	 470390.7287 	 1.234 	 94.309
0.6189659 	 40.5879443 	 463502.5402 	 1.238 	 94.254
0.6197610 	 41.3322888 	 457989.7817 	 1.244 	 94.255
0.6205432 	 42.0884520 	 448652.3521 	 1.248 	 94.196
0.6213115 	 42.8672041 	 432611.0144 	 1.254 	 94.240
0.6220665 	 43.6142766 	 415192.4059 	 1.260 	 94.196
0.6228090 	 44.3870437 	 398099.8638 	 1.268 	 94.230
0.6235393 	 45.1384314 	 375372.7378 	 1.276 	 94.189
0.6242580 	 45.8578199 	 350308.7365 	 1.287 	 94.140
0.6249665 	 46.6025427 	 325061.4021 	 1.297 	 94.145
0.6256649 	 47.3118934 	 306602.8095 	 1.309 	 94.106
0.6263531 	 48.0171729 	 300841.1309 	 1.322 	 94.065
0.6270313 	 48.7474314 	 306713.9554 	 1.335 	 94.090
0.6277004 	 49.4574692 	 328881.4885 	 1.350 	 94.061
0.6283603 	 50.2157827 	 360932.2330 	 1.362 	 94.078
0.6290105 	 51.0011508 	 402053.7514 	 1.376 	 94.001
0.6296511 	 51.8347407 	 446188.9223 	 1.387 	 93.986
