N=100 	 R=1000000 	 s=1 	 Save [density, Z, rho_t, like/unlike, events per sweep]
0.0001343 	 1.0005121 	 1.1026 	 1.009 	 10.125
0.0132582 	 1.1625966 	 12.2106 	 0.950 	 46.824
0.0260859 	 1.1528604 	 22.7481 	 1.004 	 78.944
0.0385034 	 1.1918081 	 33.4366 	 1.013 	 88.247
0.0505180 	 1.2395687 	 44.1863 	 1.015 	 92.015
0.0621675 	 1.2922653 	 54.3283 	 1.018 	 93.844
0.0734686 	 1.3483037 	 65.3235 	 1.018 	 94.779
0.0844301 	 1.4077249 	 75.5443 	 1.020 	 95.234
0.0950676 	 1.4693670 	 85.8869 	 1.021 	 95.469
0.1053970 	 1.5337344 	 96.6225 	 1.022 	 95.655
0.1154427 	 1.6000736 	 106.2454 	 1.024 	 95.758
0.1252068 	 1.6684977 	 116.6592 	 1.024 	 95.809
0.1346992 	 1.7386872 	 127.5394 	 1.026 	 95.819
0.1439374 	 1.8101284 	 137.3626 	 1.027 	 95.873
0.1529320 	 1.8839689 	 149.1053 	 1.029 	 95.835
0.1616927 	 1.9595185 	 159.6553 	 1.029 	 95.817
0.1702185 	 2.0364680 	 169.1932 	 1.031 	 95.794
0.1785337 	 2.1158312 	 179.5654 	 1.032 	 95.801
0.1866360 	 2.1963572 	 191.0704 	 1.033 	 95.786
0.1945369 	 2.2783011 	 201.1694 	 1.035 	 95.762
0.2022454 	 2.3620157 	 212.4411 	 1.035 	 95.727
0.2097734 	 2.4469761 	 222.3277 	 1.037 	 95.723
0.2171257 	 2.5341269 	 233.3223 	 1.039 	 95.698
0.2243039 	 2.6225159 	 244.4058 	 1.040 	 95.698
0.2313119 	 2.7129176 	 254.6890 	 1.041 	 95.669
0.2381592 	 2.8037910 	 265.9636 	 1.042 	 95.624
0.2448498 	 2.8970637 	 276.1327 	 1.043 	 95.634
0.2514034 	 2.9917790 	 285.3967 	 1.045 	 95.633
0.2578096 	 3.0885316 	 296.4896 	 1.045 	 95.616
0.2640729 	 3.1865187 	 305.8692 	 1.047 	 95.614
0.2702056 	 3.2859430 	 315.5984 	 1.047 	 95.590
0.2762090 	 3.3859380 	 325.8711 	 1.049 	 95.549
0.2820843 	 3.4888213 	 339.7747 	 1.049 	 95.550
0.2878393 	 3.5927996 	 348.4983 	 1.050 	 95.550
0.2934711 	 3.6979313 	 359.4509 	 1.052 	 95.540
0.2989966 	 3.8044192 	 371.2542 	 1.053 	 95.506
0.3044122 	 3.9136460 	 380.2946 	 1.054 	 95.534
0.3097197 	 4.0232379 	 390.8362 	 1.055 	 95.475
0.3149281 	 4.1347836 	 404.0274 	 1.056 	 95.507
0.3200305 	 4.2479794 	 416.9347 	 1.057 	 95.469
0.3250338 	 4.3622100 	 429.4953 	 1.058 	 95.450
0.3299495 	 4.4780725 	 439.8570 	 1.059 	 95.435
0.3347669 	 4.5950819 	 450.9329 	 1.059 	 95.430
0.3395002 	 4.7140397 	 461.1567 	 1.061 	 95.436
0.3441463 	 4.8351133 	 470.2032 	 1.061 	 95.415
0.3487086 	 4.9559233 	 477.4691 	 1.062 	 95.405
0.3531848 	 5.0788161 	 485.1166 	 1.064 	 95.374
0.3575852 	 5.2032157 	 496.5460 	 1.064 	 95.372
0.3619102 	 5.3303386 	 505.9334 	 1.065 	 95.362
0.3661630 	 5.4571609 	 520.8065 	 1.066 	 95.343
0.3703404 	 5.5866964 	 530.0413 	 1.066 	 95.320
0.3744456 	 5.7156367 	 540.3724 	 1.067 	 95.294
0.3784812 	 5.8480278 	 551.3037 	 1.069 	 95.308
0.3824527 	 5.9811143 	 556.0907 	 1.069 	 95.308
0.3863582 	 6.1157225 	 568.0295 	 1.069 	 95.299
0.3902001 	 6.2525016 	 580.5333 	 1.070 	 95.285
0.3939762 	 6.3897580 	 590.3705 	 1.071 	 95.285
0.3976961 	 6.5303320 	 603.6214 	 1.072 	 95.270
0.4013572 	 6.6702936 	 613.1839 	 1.072 	 95.257
0.4049606 	 6.8119062 	 620.4183 	 1.073 	 95.265
0.4085074 	 6.9555566 	 626.8571 	 1.074 	 95.256
0.4119971 	 7.0999170 	 638.1713 	 1.075 	 95.250
0.4154347 	 7.2432726 	 647.6190 	 1.075 	 95.235
0.4188231 	 7.3928846 	 658.9343 	 1.075 	 95.244
0.4221565 	 7.5400378 	 670.2602 	 1.076 	 95.231
0.4254388 	 7.6913968 	 681.1480 	 1.077 	 95.213
0.4286767 	 7.8428037 	 689.8156 	 1.078 	 95.215
0.4318661 	 7.9970476 	 702.7242 	 1.079 	 95.206
0.4350091 	 8.1504379 	 715.8489 	 1.078 	 95.194
0.4381103 	 8.3055763 	 726.8251 	 1.079 	 95.193
0.4411648 	 8.4604061 	 736.6994 	 1.079 	 95.174
0.4441773 	 8.6210450 	 753.3500 	 1.080 	 95.177
0.4471458 	 8.7797436 	 763.6238 	 1.080 	 95.172
0.4500767 	 8.9398922 	 776.3089 	 1.081 	 95.142
0.4529647 	 9.1040180 	 783.0148 	 1.081 	 95.155
0.4558122 	 9.2691943 	 790.3477 	 1.081 	 95.174
0.4586228 	 9.4316575 	 796.2275 	 1.082 	 95.133
0.4613934 	 9.5981516 	 801.2819 	 1.083 	 95.136
0.4641290 	 9.7696410 	 802.9395 	 1.083 	 95.145
0.4668254 	 9.9350177 	 811.4442 	 1.083 	 95.105
0.4694895 	 10.1049838 	 829.5626 	 1.083 	 95.125
0.4721153 	 10.2785989 	 845.2722 	 1.084 	 95.115
0.4747090 	 10.4516299 	 862.6111 	 1.084 	 95.080
0.4772693 	 10.6243596 	 870.7703 	 1.084 	 95.063
0.4797974 	 10.8009341 	 885.2623 	 1.084 	 95.080
0.4822935 	 10.9787108 	 900.9884 	 1.085 	 95.075
0.4847588 	 11.1573400 	 908.2867 	 1.085 	 95.095
0.4871925 	 11.3355515 	 913.5534 	 1.085 	 95.071
0.4895958 	 11.5175034 	 927.4552 	 1.086 	 95.079
0.4919689 	 11.7048861 	 936.1152 	 1.087 	 95.081
0.4943136 	 11.8848204 	 945.0397 	 1.087 	 95.059
0.4966300 	 12.0714692 	 956.3686 	 1.086 	 95.053
0.4989168 	 12.2574013 	 965.4700 	 1.086 	 95.048
0.5011764 	 12.4452865 	 977.9547 	 1.087 	 95.057
0.5034093 	 12.6377048 	 991.9751 	 1.086 	 95.070
0.5056159 	 12.8236932 	 997.7366 	 1.086 	 95.020
0.5077953 	 13.0193235 	 1006.8772 	 1.086 	 95.038
0.5099502 	 13.2118433 	 1018.9241 	 1.087 	 95.021
0.5120786 	 13.4024370 	 1024.5580 	 1.087 	 95.018
0.5141849 	 13.6013507 	 1038.6233 	 1.088 	 95.030
0.5162645 	 13.7981961 	 1050.7261 	 1.087 	 95.003
0.5183218 	 14.0001478 	 1061.5089 	 1.087 	 94.996
0.5203568 	 14.2044591 	 1072.9349 	 1.087 	 95.024
0.5223671 	 14.4018944 	 1083.9203 	 1.087 	 95.007
0.5243545 	 14.6058086 	 1096.3354 	 1.087 	 94.984
0.5263189 	 14.8089173 	 1110.3983 	 1.087 	 94.961
0.5282638 	 15.0133562 	 1124.5335 	 1.088 	 95.001
0.5301865 	 15.2227969 	 1152.4795 	 1.088 	 94.979
0.5320887 	 15.4308635 	 1170.6621 	 1.089 	 94.960
0.5339696 	 15.6415098 	 1187.8731 	 1.088 	 94.934
0.5358315 	 15.8536853 	 1204.6547 	 1.089 	 94.939
0.5376711 	 16.0685074 	 1229.2921 	 1.088 	 94.974
0.5394907 	 16.2792116 	 1256.6544 	 1.088 	 94.923
0.5412915 	 16.5023179 	 1276.4029 	 1.089 	 94.956
0.5430717 	 16.7188418 	 1299.1573 	 1.088 	 94.965
0.5448341 	 16.9389442 	 1328.7810 	 1.088 	 94.931
0.5465784 	 17.1527892 	 1352.9883 	 1.088 	 94.918
0.5483061 	 17.3757829 	 1380.0620 	 1.088 	 94.917
0.5500133 	 17.6034863 	 1411.8802 	 1.088 	 94.935
0.5517030 	 17.8262757 	 1444.0693 	 1.087 	 94.915
0.5533770 	 18.0555697 	 1490.4248 	 1.088 	 94.888
0.5550326 	 18.2902866 	 1533.9133 	 1.087 	 94.911
0.5566706 	 18.5195050 	 1618.0383 	 1.086 	 94.902
0.5582905 	 18.7486259 	 1702.4646 	 1.086 	 94.897
0.5598949 	 18.9884956 	 1812.8556 	 1.086 	 94.906
0.5614847 	 19.2180884 	 1950.9009 	 1.085 	 94.856
0.5630577 	 19.4544881 	 2136.0982 	 1.085 	 94.852
0.5646145 	 19.6995211 	 2390.3234 	 1.083 	 94.891
0.5661538 	 19.9352888 	 2761.9623 	 1.083 	 94.846
0.5676806 	 20.1854402 	 3238.6859 	 1.082 	 94.877
0.5691898 	 20.4300033 	 3860.2037 	 1.082 	 94.863
0.5706839 	 20.6817443 	 4624.1455 	 1.081 	 94.853
0.5721638 	 20.9360666 	 5544.6386 	 1.080 	 94.842
0.5736276 	 21.2023223 	 6741.0244 	 1.079 	 94.846
0.5750775 	 21.4758297 	 8192.4584 	 1.078 	 94.839
0.5765107 	 21.7549687 	 9980.5482 	 1.077 	 94.850
0.5779277 	 22.0383616 	 12035.0779 	 1.076 	 94.845
0.5793289 	 22.3345546 	 14318.1699 	 1.075 	 94.833
0.5807132 	 22.6326377 	 16845.0343 	 1.072 	 94.826
0.5820823 	 22.9460119 	 19911.3663 	 1.070 	 94.820
0.5834337 	 23.2691930 	 22986.6517 	 1.070 	 94.818
0.5847692 	 23.6130296 	 26661.9824 	 1.068 	 94.851
0.5860873 	 23.9509555 	 30473.3460 	 1.067 	 94.823
0.5873892 	 24.3014271 	 34069.3371 	 1.065 	 94.784
0.5886734 	 24.6770035 	 38086.4364 	 1.064 	 94.812
0.5899399 	 25.0554199 	 42196.6222 	 1.063 	 94.774
0.5911880 	 25.4538476 	 46361.1162 	 1.061 	 94.779
0.5924191 	 25.8578480 	 50568.7336 	 1.061 	 94.772
0.5936321 	 26.2784913 	 54072.9991 	 1.059 	 94.756
0.5948271 	 26.7074903 	 58157.7950 	 1.058 	 94.744
0.5960053 	 27.1539788 	 62123.4724 	 1.057 	 94.761
0.5971641 	 27.6172378 	 65499.4748 	 1.057 	 94.751
0.5983062 	 28.0822965 	 69300.3643 	 1.056 	 94.732
0.5994307 	 28.5553996 	 72664.4179 	 1.055 	 94.736
0.6005373 	 29.0456700 	 76157.7670 	 1.055 	 94.723
0.6016277 	 29.5412802 	 79401.0140 	 1.054 	 94.710
0.6026999 	 30.0445640 	 83067.3737 	 1.054 	 94.689
0.6037561 	 30.5539159 	 86359.5280 	 1.054 	 94.678
0.6047953 	 31.0718778 	 89630.2208 	 1.054 	 94.656
0.6058187 	 31.6007182 	 92999.1901 	 1.055 	 94.657
0.6068264 	 32.1280617 	 96060.0849 	 1.055 	 94.614
0.6078191 	 32.6758139 	 99682.2049 	 1.056 	 94.623
0.6087956 	 33.2313653 	 104186.2183 	 1.057 	 94.627
0.6097573 	 33.7733930 	 108922.3402 	 1.060 	 94.568
0.6107032 	 34.3411386 	 113997.5357 	 1.063 	 94.533
0.6116361 	 34.9194144 	 118394.9969 	 1.066 	 94.534
0.6125538 	 35.4926687 	 124893.9595 	 1.070 	 94.486
0.6134580 	 36.0900540 	 132598.9661 	 1.074 	 94.450
0.6143470 	 36.7087786 	 140647.6328 	 1.078 	 94.424
0.6152230 	 37.3271896 	 151006.5287 	 1.083 	 94.354
0.6160848 	 37.9882681 	 160225.8030 	 1.089 	 94.323
0.6169322 	 38.6433025 	 170550.3079 	 1.094 	 94.263
0.6177663 	 39.3342042 	 183017.6729 	 1.099 	 94.219
0.6185865 	 40.0506336 	 197612.9804 	 1.104 	 94.176
0.6193920 	 40.7633337 	 211286.4254 	 1.109 	 94.072
0.6201838 	 41.5392013 	 225599.0012 	 1.114 	 94.093
0.6209615 	 42.3197029 	 239571.4850 	 1.119 	 94.017
0.6217255 	 43.1264320 	 252732.3103 	 1.123 	 93.973
0.6224751 	 43.9621957 	 264602.5072 	 1.125 	 93.923
0.6232117 	 44.8133156 	 274827.4732 	 1.129 	 93.864
0.6239349 	 45.7089144 	 283553.9151 	 1.131 	 93.903
0.6246442 	 46.6021383 	 289042.4397 	 1.133 	 93.852
0.6253401 	 47.5088363 	 292718.3069 	 1.135 	 93.817
0.6260228 	 48.4500483 	 296563.0894 	 1.137 	 93.807
0.6266933 	 49.3945859 	 298004.8723 	 1.137 	 93.783
0.6273510 	 50.3839591 	 297615.0806 	 1.138 	 93.763
0.6279961 	 51.3581764 	 293827.9605 	 1.138 	 93.734
0.6286293 	 52.3822370 	 288608.7813 	 1.137 	 93.762
0.6292510 	 53.4029406 	 279719.4270 	 1.135 	 93.803
0.6298611 	 54.4240836 	 268357.4077 	 1.133 	 93.807
