N=100 	 R=1000000 	 s=1 	 Save [density, Z, rho_t, like/unlike, events per sweep]
0.0001350 	 1.0005135 	 1.1026 	 1.012 	 10.125
0.0132586 	 1.1626091 	 12.1705 	 0.951 	 46.815
0.0260722 	 1.1528374 	 22.7682 	 1.005 	 78.931
0.0384927 	 1.1917533 	 33.1801 	 1.013 	 88.253
0.0505087 	 1.2395393 	 43.6075 	 1.016 	 91.993
0.0621580 	 1.2921218 	 54.0222 	 1.018 	 93.790
0.0734533 	 1.3481444 	 64.3465 	 1.019 	 94.782
0.0844123 	 1.4075923 	 74.5089 	 1.020 	 95.231
0.0950587 	 1.4694886 	 85.2997 	 1.021 	 95.520
0.1053958 	 1.5337048 	 95.5712 	 1.022 	 95.653
0.1154353 	 1.5998179 	 106.8792 	 1.024 	 95.730
0.1252025 	 1.6684071 	 117.3235 	 1.024 	 95.799
0.1346898 	 1.7386110 	 128.3178 	 1.026 	 95.828
0.1439290 	 1.8099721 	 139.1434 	 1.027 	 95.870
0.1529231 	 1.8837704 	 150.2285 	 1.028 	 95.843
0.1616770 	 1.9595405 	 159.8708 	 1.029 	 95.822
0.1702070 	 2.0367269 	 169.8172 	 1.031 	 95.795
0.1785207 	 2.1158711 	 180.8024 	 1.033 	 95.783
0.1866281 	 2.1960767 	 190.7548 	 1.033 	 95.772
0.1945347 	 2.2781662 	 200.9658 	 1.035 	 95.734
0.2022492 	 2.3617642 	 210.5400 	 1.036 	 95.723
0.2097777 	 2.4478115 	 220.1679 	 1.037 	 95.758
0.2171178 	 2.5336439 	 229.4658 	 1.039 	 95.681
0.2242914 	 2.6224672 	 238.8091 	 1.040 	 95.683
0.2312982 	 2.7125337 	 249.8386 	 1.041 	 95.677
0.2381479 	 2.8037454 	 258.6636 	 1.042 	 95.643
0.2448474 	 2.8974352 	 266.6484 	 1.043 	 95.649
0.2513924 	 2.9919835 	 275.8830 	 1.044 	 95.639
0.2577980 	 3.0883661 	 284.2640 	 1.045 	 95.615
0.2640631 	 3.1862378 	 292.9177 	 1.047 	 95.603
0.2701929 	 3.2852167 	 303.9879 	 1.048 	 95.603
0.2761922 	 3.3864596 	 314.5029 	 1.049 	 95.591
0.2820684 	 3.4889304 	 323.8235 	 1.050 	 95.549
0.2878204 	 3.5924165 	 332.6107 	 1.051 	 95.524
0.2934578 	 3.6979761 	 340.1952 	 1.052 	 95.510
0.2989794 	 3.8043847 	 350.9765 	 1.053 	 95.510
0.3043883 	 3.9123453 	 361.1549 	 1.054 	 95.483
0.3096981 	 4.0227958 	 372.2735 	 1.055 	 95.512
0.3149022 	 4.1347939 	 384.8667 	 1.056 	 95.495
0.3200115 	 4.2471488 	 394.3374 	 1.056 	 95.468
0.3250197 	 4.3621926 	 409.4915 	 1.058 	 95.468
0.3299328 	 4.4772476 	 419.1344 	 1.059 	 95.435
0.3347548 	 4.5949300 	 427.5436 	 1.060 	 95.452
0.3394843 	 4.7142785 	 436.0154 	 1.061 	 95.426
0.3441346 	 4.8334835 	 446.0485 	 1.061 	 95.391
0.3486967 	 4.9550633 	 456.9447 	 1.062 	 95.376
0.3531794 	 5.0790628 	 462.4297 	 1.063 	 95.395
0.3575793 	 5.2035436 	 475.1076 	 1.064 	 95.373
0.3619031 	 5.3291709 	 485.0495 	 1.065 	 95.352
0.3661516 	 5.4579016 	 494.4673 	 1.066 	 95.371
0.3703293 	 5.5862897 	 504.9172 	 1.067 	 95.363
0.3744375 	 5.7163631 	 512.2856 	 1.068 	 95.329
0.3784744 	 5.8489722 	 523.3703 	 1.068 	 95.335
0.3824448 	 5.9832422 	 534.6324 	 1.068 	 95.332
0.3863508 	 6.1163903 	 545.8126 	 1.069 	 95.311
0.3901931 	 6.2534025 	 557.4873 	 1.070 	 95.324
0.3939730 	 6.3906039 	 570.4482 	 1.071 	 95.301
0.3976899 	 6.5285258 	 579.7173 	 1.072 	 95.274
0.4013476 	 6.6700916 	 588.7299 	 1.073 	 95.277
0.4049470 	 6.8118271 	 598.3695 	 1.073 	 95.267
0.4084935 	 6.9536700 	 607.3787 	 1.074 	 95.241
0.4119875 	 7.0987013 	 614.9141 	 1.074 	 95.240
0.4154294 	 7.2446566 	 624.9563 	 1.075 	 95.230
0.4188114 	 7.3914589 	 637.4003 	 1.075 	 95.220
0.4221464 	 7.5399173 	 645.8153 	 1.076 	 95.205
0.4254344 	 7.6905591 	 663.7203 	 1.076 	 95.196
0.4286696 	 7.8412426 	 673.5061 	 1.077 	 95.198
0.4318589 	 7.9943230 	 679.0233 	 1.077 	 95.202
0.4350034 	 8.1502676 	 692.0340 	 1.078 	 95.202
0.4381016 	 8.3049980 	 705.3689 	 1.078 	 95.194
0.4411548 	 8.4624856 	 718.6140 	 1.079 	 95.174
0.4441652 	 8.6175779 	 725.8673 	 1.079 	 95.140
0.4471314 	 8.7795873 	 736.6908 	 1.081 	 95.170
0.4500575 	 8.9395477 	 746.5395 	 1.081 	 95.173
0.4529443 	 9.1046197 	 757.4690 	 1.081 	 95.174
0.4557928 	 9.2670788 	 771.3810 	 1.081 	 95.123
0.4585996 	 9.4298249 	 782.0527 	 1.082 	 95.148
0.4613723 	 9.5975406 	 792.5053 	 1.083 	 95.131
0.4641078 	 9.7642702 	 798.8530 	 1.083 	 95.142
0.4668060 	 9.9326635 	 800.8677 	 1.083 	 95.102
0.4694689 	 10.1082023 	 811.7461 	 1.084 	 95.125
0.4720961 	 10.2774649 	 822.8103 	 1.084 	 95.113
0.4746885 	 10.4513843 	 834.9080 	 1.083 	 95.111
0.4772479 	 10.6257575 	 849.9935 	 1.084 	 95.110
0.4797755 	 10.8019987 	 862.3351 	 1.085 	 95.114
0.4822684 	 10.9770975 	 869.2614 	 1.085 	 95.101
0.4847314 	 11.1565633 	 878.6400 	 1.085 	 95.098
0.4871651 	 11.3337846 	 893.4364 	 1.085 	 95.072
0.4895683 	 11.5188506 	 905.2860 	 1.085 	 95.083
0.4919416 	 11.6986161 	 921.5406 	 1.086 	 95.075
0.4942845 	 11.8838621 	 931.5602 	 1.086 	 95.062
0.4965986 	 12.0686137 	 943.2872 	 1.086 	 95.047
0.4988873 	 12.2540064 	 957.9613 	 1.086 	 95.074
0.5011465 	 12.4427325 	 975.0660 	 1.087 	 95.066
0.5033774 	 12.6309405 	 980.4285 	 1.087 	 95.064
0.5055865 	 12.8236077 	 990.2381 	 1.086 	 95.039
0.5077656 	 13.0185979 	 1006.0839 	 1.087 	 95.059
0.5099206 	 13.2066279 	 1018.2062 	 1.087 	 95.013
0.5120514 	 13.4017495 	 1022.0203 	 1.087 	 95.043
0.5141574 	 13.6003393 	 1032.9826 	 1.087 	 95.012
0.5162377 	 13.7975011 	 1042.8892 	 1.088 	 95.014
0.5182950 	 13.9960118 	 1051.6178 	 1.088 	 95.006
0.5203270 	 14.1977740 	 1060.1551 	 1.088 	 95.030
0.5223369 	 14.3970943 	 1076.4180 	 1.087 	 94.989
0.5243244 	 14.6011390 	 1092.4365 	 1.087 	 94.968
0.5262901 	 14.8060151 	 1111.1132 	 1.088 	 94.993
0.5282343 	 15.0107531 	 1122.9580 	 1.087 	 94.982
0.5301573 	 15.2196386 	 1130.5678 	 1.088 	 94.955
0.5320580 	 15.4266812 	 1145.0266 	 1.088 	 94.937
0.5339392 	 15.6355510 	 1156.2027 	 1.087 	 94.948
0.5357992 	 15.8492326 	 1171.1177 	 1.088 	 94.962
0.5376417 	 16.0571226 	 1180.0259 	 1.088 	 94.925
0.5394629 	 16.2800043 	 1195.3773 	 1.087 	 94.954
0.5412650 	 16.4904406 	 1218.8000 	 1.087 	 94.959
0.5430486 	 16.7108606 	 1233.4046 	 1.087 	 94.921
0.5448115 	 16.9348088 	 1261.9307 	 1.087 	 94.933
0.5465566 	 17.1490304 	 1296.2112 	 1.087 	 94.922
0.5482843 	 17.3724967 	 1338.6992 	 1.087 	 94.937
0.5499926 	 17.5959804 	 1404.8726 	 1.087 	 94.915
0.5516834 	 17.8234928 	 1474.7253 	 1.087 	 94.950
0.5533560 	 18.0510614 	 1545.8752 	 1.087 	 94.925
0.5550119 	 18.2806379 	 1640.1226 	 1.086 	 94.924
0.5566511 	 18.5029388 	 1757.5106 	 1.086 	 94.876
0.5582744 	 18.7326072 	 1932.2502 	 1.086 	 94.891
0.5598805 	 18.9618547 	 2147.9421 	 1.086 	 94.870
0.5614714 	 19.1896711 	 2448.3681 	 1.084 	 94.868
0.5630459 	 19.4216757 	 2895.5759 	 1.084 	 94.880
0.5646056 	 19.6589551 	 3465.9503 	 1.084 	 94.876
0.5661497 	 19.8931696 	 4198.0609 	 1.083 	 94.884
0.5676791 	 20.1379708 	 5106.6828 	 1.083 	 94.866
0.5691928 	 20.3828185 	 6222.1424 	 1.083 	 94.858
0.5706915 	 20.6300678 	 7728.7703 	 1.084 	 94.876
0.5721755 	 20.8839623 	 9423.9196 	 1.083 	 94.845
0.5736439 	 21.1505906 	 11521.3009 	 1.084 	 94.861
0.5750963 	 21.4197289 	 13857.9783 	 1.085 	 94.839
0.5765328 	 21.6978579 	 16809.9245 	 1.086 	 94.833
0.5779536 	 21.9909616 	 19726.3780 	 1.087 	 94.834
0.5793574 	 22.2848618 	 23522.0227 	 1.089 	 94.846
0.5807456 	 22.5892842 	 27395.3068 	 1.091 	 94.819
0.5821170 	 22.8959401 	 31849.8713 	 1.094 	 94.833
0.5834730 	 23.2159263 	 36777.0872 	 1.097 	 94.853
0.5848119 	 23.5354856 	 43329.1692 	 1.101 	 94.791
0.5861348 	 23.8580937 	 50849.4869 	 1.105 	 94.785
0.5874414 	 24.1904974 	 61139.6071 	 1.110 	 94.734
0.5887333 	 24.5286304 	 73739.1051 	 1.117 	 94.764
0.5900084 	 24.8691057 	 91854.7039 	 1.124 	 94.709
0.5912686 	 25.2198177 	 114037.3949 	 1.133 	 94.686
0.5925129 	 25.5643481 	 142734.8517 	 1.143 	 94.620
0.5937425 	 25.9179849 	 181862.1763 	 1.154 	 94.568
0.5949581 	 26.2798914 	 226730.0875 	 1.166 	 94.532
0.5961573 	 26.6637187 	 278021.6633 	 1.177 	 94.510
0.5973416 	 27.0511396 	 333714.9753 	 1.190 	 94.437
0.5985096 	 27.4598629 	 394823.8785 	 1.203 	 94.393
0.5996615 	 27.8902906 	 455238.0937 	 1.215 	 94.339
0.6007966 	 28.3379525 	 514229.7977 	 1.227 	 94.295
0.6019164 	 28.8073871 	 564850.3554 	 1.237 	 94.230
0.6030173 	 29.2855405 	 616478.3914 	 1.247 	 94.179
0.6041018 	 29.8069166 	 657454.2129 	 1.257 	 94.145
0.6051688 	 30.3415598 	 694665.1497 	 1.264 	 94.121
0.6062178 	 30.8834374 	 726851.9556 	 1.271 	 94.077
0.6072493 	 31.4639927 	 754173.0491 	 1.278 	 94.066
0.6082632 	 32.0551751 	 775263.3545 	 1.284 	 94.045
0.6092582 	 32.6538273 	 795534.8077 	 1.289 	 93.991
0.6102372 	 33.2733802 	 813064.9892 	 1.294 	 93.948
0.6111984 	 33.9134227 	 828925.8350 	 1.300 	 93.933
0.6121424 	 34.5646373 	 841393.7580 	 1.305 	 93.894
0.6130687 	 35.2286234 	 852419.6777 	 1.308 	 93.874
0.6139792 	 35.9079723 	 863699.2220 	 1.313 	 93.824
0.6148731 	 36.6235798 	 869176.4399 	 1.317 	 93.800
0.6157494 	 37.3463616 	 875665.0692 	 1.321 	 93.835
0.6166108 	 38.0824450 	 880394.2511 	 1.325 	 93.798
0.6174555 	 38.8248903 	 885850.2145 	 1.328 	 93.741
0.6182850 	 39.5933178 	 890186.0812 	 1.330 	 93.703
0.6190989 	 40.3834329 	 892945.3015 	 1.333 	 93.689
0.6198979 	 41.1813714 	 893502.2531 	 1.336 	 93.688
0.6206820 	 42.0152739 	 892689.5426 	 1.339 	 93.676
0.6214513 	 42.8515622 	 888507.8018 	 1.340 	 93.640
0.6222061 	 43.7100091 	 884468.8184 	 1.342 	 93.616
0.6229468 	 44.5909395 	 881288.0040 	 1.345 	 93.591
0.6236729 	 45.4968649 	 874196.2621 	 1.347 	 93.587
0.6243854 	 46.4197032 	 866494.6045 	 1.349 	 93.585
0.6250840 	 47.3539107 	 856092.7944 	 1.350 	 93.549
0.6257690 	 48.3123585 	 843429.3965 	 1.352 	 93.559
0.6264405 	 49.2773266 	 829339.4173 	 1.353 	 93.528
0.6270997 	 50.2887317 	 815334.6211 	 1.354 	 93.548
0.6277463 	 51.3154166 	 795718.7961 	 1.354 	 93.532
0.6283804 	 52.3299164 	 779028.2370 	 1.356 	 93.506
0.6290020 	 53.3904011 	 752254.3083 	 1.356 	 93.485
0.6296119 	 54.4689426 	 726733.9160 	 1.356 	 93.478
