N=100 	 R=1000000 	 s=1 	 Save [density, Z, rho_t, like/unlike, events per sweep]
0.0001340 	 1.0005099 	 1.1025 	 1.000 	 10.124
0.0132589 	 1.1627023 	 12.1551 	 0.950 	 46.776
0.0260867 	 1.1528454 	 22.7357 	 1.004 	 78.965
0.0385025 	 1.1918830 	 33.3668 	 1.012 	 88.254
0.0505265 	 1.2395772 	 43.9776 	 1.015 	 91.978
0.0621739 	 1.2922085 	 54.1810 	 1.017 	 93.778
0.0734748 	 1.3482992 	 64.6272 	 1.019 	 94.764
0.0844322 	 1.4076550 	 75.2776 	 1.020 	 95.238
0.0950740 	 1.4696964 	 85.4554 	 1.020 	 95.539
0.1054027 	 1.5337896 	 95.6289 	 1.022 	 95.666
0.1154431 	 1.5999963 	 105.5533 	 1.023 	 95.757
0.1252136 	 1.6684043 	 116.1332 	 1.025 	 95.788
0.1347125 	 1.7387120 	 126.7057 	 1.026 	 95.804
0.1439498 	 1.8104249 	 136.2039 	 1.027 	 95.901
0.1529443 	 1.8842939 	 146.8605 	 1.028 	 95.865
0.1617003 	 1.9598105 	 157.4249 	 1.030 	 95.850
0.1702302 	 2.0370600 	 167.4319 	 1.031 	 95.804
0.1785433 	 2.1160286 	 177.5213 	 1.033 	 95.792
0.1866476 	 2.1961118 	 188.1268 	 1.033 	 95.756
0.1945445 	 2.2782165 	 199.1479 	 1.035 	 95.721
0.2022559 	 2.3618919 	 209.3261 	 1.037 	 95.736
0.2097860 	 2.4474162 	 218.7314 	 1.038 	 95.718
0.2171336 	 2.5340685 	 229.7167 	 1.038 	 95.727
0.2243081 	 2.6229725 	 239.9997 	 1.040 	 95.674
0.2313153 	 2.7122478 	 250.6089 	 1.041 	 95.641
0.2381659 	 2.8042393 	 262.3023 	 1.042 	 95.676
0.2448592 	 2.8970318 	 273.4497 	 1.043 	 95.623
0.2514080 	 2.9918911 	 284.7345 	 1.044 	 95.611
0.2578099 	 3.0882260 	 293.8378 	 1.045 	 95.606
0.2640747 	 3.1853491 	 302.8567 	 1.047 	 95.563
0.2702073 	 3.2850601 	 312.2881 	 1.048 	 95.566
0.2762138 	 3.3868613 	 319.9600 	 1.049 	 95.590
0.2820864 	 3.4885435 	 330.7479 	 1.049 	 95.539
0.2878467 	 3.5932372 	 343.3278 	 1.051 	 95.548
0.2934816 	 3.6985171 	 353.8908 	 1.052 	 95.513
0.2990057 	 3.8048490 	 362.4943 	 1.053 	 95.527
0.3044164 	 3.9134512 	 372.8402 	 1.054 	 95.491
0.3097225 	 4.0237602 	 385.8683 	 1.055 	 95.498
0.3149253 	 4.1343762 	 398.6187 	 1.056 	 95.493
0.3200293 	 4.2478267 	 411.3924 	 1.057 	 95.470
0.3250328 	 4.3616034 	 421.2781 	 1.058 	 95.461
0.3299495 	 4.4781655 	 428.1724 	 1.059 	 95.452
0.3347697 	 4.5954789 	 441.1517 	 1.059 	 95.448
0.3395024 	 4.7144161 	 451.0735 	 1.060 	 95.394
0.3441501 	 4.8353876 	 458.4786 	 1.062 	 95.418
0.3487091 	 4.9564927 	 472.3463 	 1.062 	 95.409
0.3531846 	 5.0792809 	 484.1683 	 1.063 	 95.393
0.3575842 	 5.2047615 	 496.7525 	 1.064 	 95.393
0.3619104 	 5.3299877 	 505.9690 	 1.065 	 95.349
0.3661617 	 5.4579443 	 514.8001 	 1.066 	 95.368
0.3703376 	 5.5875258 	 525.3129 	 1.066 	 95.357
0.3744431 	 5.7161586 	 532.9069 	 1.067 	 95.330
0.3784808 	 5.8492612 	 540.8089 	 1.068 	 95.327
0.3824477 	 5.9817674 	 552.5094 	 1.069 	 95.340
0.3863543 	 6.1169804 	 565.5488 	 1.070 	 95.301
0.3901941 	 6.2538443 	 576.4973 	 1.071 	 95.310
0.3939736 	 6.3903925 	 583.9310 	 1.071 	 95.277
0.3976915 	 6.5302485 	 596.4472 	 1.072 	 95.286
0.4013516 	 6.6690329 	 607.4908 	 1.072 	 95.263
0.4049540 	 6.8108725 	 615.6522 	 1.073 	 95.268
0.4084996 	 6.9550403 	 629.4237 	 1.074 	 95.275
0.4119904 	 7.0975052 	 638.0075 	 1.074 	 95.230
0.4154291 	 7.2443037 	 643.5191 	 1.075 	 95.248
0.4188174 	 7.3918380 	 651.8786 	 1.076 	 95.237
0.4221535 	 7.5394310 	 659.6399 	 1.076 	 95.218
0.4254389 	 7.6923492 	 670.7797 	 1.077 	 95.216
0.4286756 	 7.8425410 	 676.6902 	 1.078 	 95.203
0.4318659 	 7.9943760 	 689.6479 	 1.079 	 95.201
0.4350082 	 8.1501616 	 697.1629 	 1.079 	 95.212
0.4381060 	 8.3051889 	 705.7614 	 1.079 	 95.192
0.4411589 	 8.4616586 	 718.0159 	 1.079 	 95.197
0.4441704 	 8.6217396 	 730.9931 	 1.080 	 95.196
0.4471387 	 8.7785027 	 739.3306 	 1.080 	 95.147
0.4500661 	 8.9403009 	 745.5654 	 1.080 	 95.163
0.4529549 	 9.1041214 	 755.6329 	 1.081 	 95.164
0.4558010 	 9.2669028 	 769.8043 	 1.081 	 95.138
0.4586106 	 9.4308790 	 779.5403 	 1.081 	 95.133
0.4613809 	 9.5983603 	 792.6048 	 1.082 	 95.128
0.4641150 	 9.7647446 	 799.8122 	 1.083 	 95.132
0.4668119 	 9.9332225 	 810.3797 	 1.083 	 95.117
0.4694738 	 10.1056578 	 820.3494 	 1.084 	 95.111
0.4721031 	 10.2796000 	 828.7017 	 1.084 	 95.148
0.4746968 	 10.4510237 	 840.2694 	 1.084 	 95.110
0.4772562 	 10.6239552 	 849.3623 	 1.085 	 95.096
0.4797836 	 10.8012984 	 863.6899 	 1.085 	 95.127
0.4822796 	 10.9763925 	 879.8571 	 1.085 	 95.084
0.4847454 	 11.1560130 	 890.2528 	 1.087 	 95.088
0.4871796 	 11.3366779 	 901.1364 	 1.085 	 95.106
0.4895830 	 11.5172268 	 914.7147 	 1.086 	 95.081
0.4919561 	 11.7011907 	 919.7432 	 1.086 	 95.074
0.4942994 	 11.8833869 	 931.2188 	 1.087 	 95.071
0.4966148 	 12.0698473 	 944.0328 	 1.087 	 95.050
0.4989018 	 12.2546664 	 961.5394 	 1.087 	 95.041
0.5011632 	 12.4427633 	 969.5811 	 1.088 	 95.041
0.5033953 	 12.6310020 	 978.2432 	 1.087 	 95.025
0.5056029 	 12.8236224 	 993.3223 	 1.088 	 95.019
0.5077832 	 13.0136826 	 1003.9189 	 1.088 	 95.023
0.5099368 	 13.2082946 	 1018.7760 	 1.088 	 95.019
0.5120677 	 13.4029969 	 1029.3058 	 1.087 	 95.019
0.5141739 	 13.5993491 	 1040.6286 	 1.087 	 94.975
0.5162552 	 13.7975475 	 1053.3358 	 1.088 	 95.014
0.5183107 	 13.9968228 	 1067.0363 	 1.088 	 95.003
0.5203448 	 14.1983832 	 1079.5487 	 1.088 	 94.991
0.5223564 	 14.4061379 	 1086.7189 	 1.087 	 95.009
0.5243455 	 14.6066927 	 1094.6872 	 1.087 	 94.990
0.5263111 	 14.8126107 	 1104.2942 	 1.087 	 94.984
0.5282560 	 15.0179016 	 1122.1649 	 1.087 	 94.985
0.5301786 	 15.2239469 	 1131.3552 	 1.087 	 94.980
0.5320806 	 15.4301114 	 1148.5072 	 1.087 	 94.944
0.5339611 	 15.6432403 	 1166.2871 	 1.088 	 94.969
0.5358198 	 15.8596183 	 1190.1850 	 1.088 	 94.977
0.5376599 	 16.0658614 	 1206.0108 	 1.088 	 94.962
0.5394808 	 16.2826245 	 1217.4979 	 1.087 	 94.960
0.5412816 	 16.4968369 	 1241.9986 	 1.088 	 94.921
0.5430624 	 16.7202236 	 1273.0490 	 1.087 	 94.936
0.5448255 	 16.9403660 	 1295.0584 	 1.087 	 94.929
0.5465689 	 17.1588547 	 1320.1470 	 1.087 	 94.933
0.5482957 	 17.3858344 	 1353.4897 	 1.086 	 94.930
0.5500017 	 17.6095894 	 1379.3977 	 1.086 	 94.918
0.5516915 	 17.8349521 	 1421.8327 	 1.085 	 94.914
0.5533645 	 18.0578318 	 1465.5898 	 1.085 	 94.921
0.5550197 	 18.2866646 	 1519.5033 	 1.084 	 94.924
0.5566577 	 18.5140630 	 1607.7473 	 1.084 	 94.899
0.5582794 	 18.7440499 	 1712.3160 	 1.084 	 94.910
0.5598862 	 18.9782330 	 1869.2893 	 1.083 	 94.927
0.5614764 	 19.2072897 	 2056.2952 	 1.083 	 94.894
0.5630504 	 19.4428648 	 2320.3035 	 1.083 	 94.892
0.5646096 	 19.6823414 	 2677.4372 	 1.082 	 94.885
0.5661526 	 19.9224409 	 3151.9016 	 1.082 	 94.887
0.5676800 	 20.1600586 	 3857.1213 	 1.083 	 94.893
0.5691930 	 20.3970781 	 4812.7767 	 1.083 	 94.877
0.5706905 	 20.6408566 	 6205.7895 	 1.083 	 94.883
0.5721737 	 20.8849069 	 8215.7919 	 1.083 	 94.886
0.5736420 	 21.1377449 	 11075.7739 	 1.085 	 94.852
0.5750961 	 21.3928990 	 14787.7990 	 1.085 	 94.869
0.5765343 	 21.6615624 	 19509.7038 	 1.086 	 94.850
0.5779584 	 21.9344123 	 25715.9152 	 1.087 	 94.864
0.5793663 	 22.2130168 	 33645.0496 	 1.087 	 94.862
0.5807591 	 22.5158111 	 42074.7727 	 1.088 	 94.864
0.5821356 	 22.8182567 	 51966.3885 	 1.087 	 94.835
0.5834956 	 23.1463990 	 63071.6452 	 1.087 	 94.855
0.5848386 	 23.4810684 	 74551.2431 	 1.085 	 94.832
0.5861647 	 23.8363969 	 86137.5835 	 1.084 	 94.831
0.5874718 	 24.1976348 	 97500.4875 	 1.081 	 94.811
0.5887609 	 24.5791862 	 109455.6231 	 1.078 	 94.836
0.5900331 	 24.9599567 	 120974.6987 	 1.075 	 94.844
0.5912870 	 25.3602185 	 134078.1645 	 1.071 	 94.830
0.5925237 	 25.7577519 	 146611.0590 	 1.067 	 94.799
0.5937420 	 26.1820731 	 159020.4257 	 1.062 	 94.846
0.5949429 	 26.5993005 	 175741.5204 	 1.057 	 94.827
0.5961260 	 27.0428201 	 192191.2883 	 1.051 	 94.853
0.5972913 	 27.4807229 	 208421.2233 	 1.046 	 94.869
0.5984398 	 27.9356547 	 224917.6815 	 1.040 	 94.855
0.5995709 	 28.3979209 	 242368.4554 	 1.035 	 94.852
0.6006857 	 28.8784654 	 260043.6078 	 1.030 	 94.871
0.6017832 	 29.3630552 	 271314.4033 	 1.028 	 94.855
0.6028628 	 29.8630545 	 281728.4623 	 1.027 	 94.852
0.6039257 	 30.3798413 	 287696.6725 	 1.026 	 94.879
0.6049711 	 30.8887975 	 295160.7608 	 1.026 	 94.836
0.6060009 	 31.4200146 	 300186.1698 	 1.027 	 94.823
0.6070154 	 31.9769400 	 299898.2063 	 1.031 	 94.835
0.6080121 	 32.5340313 	 295154.1072 	 1.035 	 94.788
0.6089928 	 33.1057894 	 290246.5474 	 1.041 	 94.754
0.6099580 	 33.6864764 	 283722.3721 	 1.047 	 94.725
0.6109078 	 34.2776564 	 277503.9292 	 1.055 	 94.689
0.6118418 	 34.8712956 	 272564.8438 	 1.063 	 94.629
0.6127605 	 35.4835119 	 272235.4021 	 1.071 	 94.586
0.6136641 	 36.0919278 	 274163.2449 	 1.081 	 94.553
0.6145543 	 36.7118650 	 280931.9026 	 1.090 	 94.507
0.6154300 	 37.3299693 	 292301.0102 	 1.099 	 94.456
0.6162921 	 37.9622855 	 309713.1080 	 1.108 	 94.407
0.6171403 	 38.6171863 	 327933.3348 	 1.115 	 94.365
0.6179748 	 39.2441912 	 350040.3727 	 1.123 	 94.271
0.6187971 	 39.9140730 	 371047.2289 	 1.129 	 94.272
0.6196066 	 40.5812555 	 387636.0826 	 1.134 	 94.262
0.6204035 	 41.2489556 	 399317.7123 	 1.139 	 94.229
0.6211876 	 41.9298536 	 405672.2435 	 1.143 	 94.234
0.6219606 	 42.6096937 	 406935.2065 	 1.147 	 94.206
0.6227217 	 43.3038280 	 403047.3793 	 1.152 	 94.281
0.6234714 	 43.9803687 	 396366.4246 	 1.156 	 94.312
0.6242099 	 44.6589326 	 388601.6638 	 1.161 	 94.352
0.6249381 	 45.3388512 	 388765.6523 	 1.168 	 94.395
0.6256552 	 46.0528236 	 398892.4450 	 1.175 	 94.506
0.6263627 	 46.7634140 	 425343.3627 	 1.181 	 94.580
0.6270599 	 47.4815367 	 466602.9796 	 1.189 	 94.639
0.6277468 	 48.2140205 	 520397.4446 	 1.198 	 94.690
0.6284233 	 48.9988858 	 582401.9026 	 1.207 	 94.763
0.6290897 	 49.8243359 	 645166.5904 	 1.215 	 94.807
0.6297449 	 50.6772884 	 707989.7281 	 1.223 	 94.872
