N=100 	 R=1000000 	 s=1 	 Save [density, Z, rho_t, like/unlike, events per sweep]
0.0001352 	 1.0005128 	 1.1026 	 1.006 	 10.125
0.0132597 	 1.1624957 	 12.2150 	 0.951 	 46.822
0.0260756 	 1.1528163 	 22.8355 	 1.005 	 78.931
0.0384935 	 1.1917962 	 33.4568 	 1.013 	 88.223
0.0505071 	 1.2395358 	 43.9602 	 1.017 	 92.018
0.0621564 	 1.2921270 	 54.4391 	 1.018 	 93.781
0.0734481 	 1.3481629 	 64.9603 	 1.019 	 94.768
0.0844077 	 1.4073911 	 75.4449 	 1.020 	 95.232
0.0950453 	 1.4693815 	 86.6325 	 1.021 	 95.523
0.1053833 	 1.5335372 	 97.1629 	 1.022 	 95.670
0.1154320 	 1.5999678 	 107.4114 	 1.024 	 95.752
0.1251943 	 1.6681362 	 118.0422 	 1.025 	 95.781
0.1346965 	 1.7385352 	 127.8326 	 1.026 	 95.803
0.1439419 	 1.8101702 	 137.4713 	 1.028 	 95.867
0.1529340 	 1.8841006 	 147.6618 	 1.029 	 95.845
0.1616979 	 1.9597976 	 158.0514 	 1.030 	 95.827
0.1702289 	 2.0369888 	 169.2434 	 1.031 	 95.796
0.1785442 	 2.1160805 	 180.0071 	 1.032 	 95.806
0.1866437 	 2.1965015 	 191.2483 	 1.034 	 95.779
0.1945425 	 2.2784900 	 200.0875 	 1.035 	 95.776
0.2022486 	 2.3618265 	 210.2475 	 1.036 	 95.724
0.2097751 	 2.4468109 	 219.6933 	 1.037 	 95.675
0.2171220 	 2.5341070 	 229.9901 	 1.038 	 95.703
0.2242948 	 2.6223540 	 240.5982 	 1.040 	 95.677
0.2313023 	 2.7122714 	 251.6222 	 1.041 	 95.669
0.2381518 	 2.8038501 	 262.5985 	 1.041 	 95.645
0.2448502 	 2.8967311 	 273.2860 	 1.043 	 95.626
0.2513948 	 2.9919013 	 283.0151 	 1.045 	 95.632
0.2577961 	 3.0882519 	 292.5911 	 1.045 	 95.608
0.2640578 	 3.1856361 	 303.2176 	 1.046 	 95.591
0.2701862 	 3.2847499 	 313.1952 	 1.047 	 95.569
0.2761807 	 3.3859748 	 323.0303 	 1.048 	 95.587
0.2820553 	 3.4883582 	 334.6233 	 1.050 	 95.551
0.2878039 	 3.5923060 	 345.8172 	 1.051 	 95.548
0.2934387 	 3.6972478 	 354.2396 	 1.052 	 95.511
0.2989624 	 3.8044993 	 365.1178 	 1.053 	 95.538
0.3043746 	 3.9131495 	 377.0225 	 1.054 	 95.532
0.3096836 	 4.0221905 	 386.1175 	 1.055 	 95.475
0.3148867 	 4.1344937 	 395.3100 	 1.056 	 95.488
0.3199898 	 4.2465664 	 407.6040 	 1.057 	 95.450
0.3249977 	 4.3602885 	 415.5335 	 1.058 	 95.471
0.3299110 	 4.4770772 	 425.1101 	 1.059 	 95.459
0.3347308 	 4.5945245 	 434.7966 	 1.060 	 95.436
0.3394616 	 4.7131304 	 446.0781 	 1.061 	 95.417
0.3441097 	 4.8333760 	 459.0514 	 1.061 	 95.420
0.3486711 	 4.9542656 	 468.7952 	 1.062 	 95.398
0.3531504 	 5.0777156 	 477.9768 	 1.064 	 95.366
0.3575572 	 5.2037431 	 489.2298 	 1.064 	 95.395
0.3618825 	 5.3302528 	 502.3197 	 1.065 	 95.363
0.3661312 	 5.4570283 	 511.5457 	 1.066 	 95.370
0.3703085 	 5.5853504 	 525.8206 	 1.066 	 95.334
0.3744195 	 5.7169748 	 537.6784 	 1.068 	 95.346
0.3784581 	 5.8474144 	 545.3358 	 1.069 	 95.298
0.3824296 	 5.9815246 	 558.2090 	 1.069 	 95.343
0.3863357 	 6.1155113 	 563.9744 	 1.070 	 95.324
0.3901755 	 6.2517950 	 574.0177 	 1.071 	 95.305
0.3939565 	 6.3894758 	 585.9064 	 1.072 	 95.295
0.3976745 	 6.5285273 	 598.6613 	 1.072 	 95.290
0.4013375 	 6.6693874 	 606.7675 	 1.072 	 95.262
0.4049399 	 6.8100097 	 618.0999 	 1.073 	 95.242
0.4084878 	 6.9553795 	 626.9475 	 1.074 	 95.261
0.4119832 	 7.0983741 	 638.1498 	 1.075 	 95.249
0.4154218 	 7.2443698 	 655.7961 	 1.074 	 95.244
0.4188035 	 7.3922436 	 666.5467 	 1.076 	 95.227
0.4221391 	 7.5413309 	 677.5273 	 1.076 	 95.230
0.4254268 	 7.6919847 	 690.5195 	 1.076 	 95.223
0.4286630 	 7.8411438 	 700.5495 	 1.078 	 95.198
0.4318524 	 7.9945978 	 711.6415 	 1.078 	 95.204
0.4349958 	 8.1494010 	 722.8438 	 1.078 	 95.210
0.4380955 	 8.3054489 	 734.3435 	 1.079 	 95.184
0.4411505 	 8.4610080 	 744.9725 	 1.080 	 95.172
0.4441613 	 8.6218396 	 761.5379 	 1.080 	 95.179
0.4471311 	 8.7792940 	 775.1096 	 1.080 	 95.164
0.4500579 	 8.9384183 	 786.1229 	 1.081 	 95.161
0.4529470 	 9.1012538 	 796.0433 	 1.081 	 95.155
0.4557931 	 9.2654491 	 806.0143 	 1.081 	 95.157
0.4586015 	 9.4309418 	 815.1367 	 1.082 	 95.140
0.4613741 	 9.5981537 	 827.6964 	 1.083 	 95.147
0.4641076 	 9.7656600 	 842.4304 	 1.083 	 95.132
0.4668055 	 9.9354427 	 858.4791 	 1.082 	 95.134
0.4694677 	 10.1020586 	 870.3342 	 1.082 	 95.117
0.4720964 	 10.2784013 	 881.0910 	 1.083 	 95.130
0.4746896 	 10.4503312 	 890.1772 	 1.083 	 95.133
0.4772498 	 10.6232400 	 902.0319 	 1.083 	 95.061
0.4797763 	 10.7998579 	 917.6729 	 1.085 	 95.094
0.4822714 	 10.9766343 	 931.0142 	 1.084 	 95.101
0.4847368 	 11.1537349 	 938.2669 	 1.084 	 95.065
0.4871703 	 11.3355989 	 954.1681 	 1.085 	 95.067
0.4895721 	 11.5181210 	 968.6132 	 1.085 	 95.076
0.4919443 	 11.6980535 	 980.3303 	 1.085 	 95.067
0.4942882 	 11.8798303 	 1000.8524 	 1.086 	 95.057
0.4966040 	 12.0734789 	 1008.6881 	 1.086 	 95.085
0.4988949 	 12.2558973 	 1011.0540 	 1.087 	 95.047
0.5011569 	 12.4453666 	 1033.5859 	 1.087 	 95.072
0.5033870 	 12.6301283 	 1041.8207 	 1.087 	 95.036
0.5055931 	 12.8222237 	 1051.4089 	 1.088 	 95.042
0.5077742 	 13.0146871 	 1050.4963 	 1.088 	 95.027
0.5099296 	 13.2136060 	 1067.1690 	 1.087 	 95.048
0.5120578 	 13.4067541 	 1074.9052 	 1.087 	 95.018
0.5141618 	 13.5981156 	 1082.9263 	 1.087 	 94.985
0.5162435 	 13.7981345 	 1088.1739 	 1.088 	 95.017
0.5182999 	 14.0009186 	 1094.4749 	 1.087 	 95.015
0.5203344 	 14.1974129 	 1111.5623 	 1.087 	 95.001
0.5223448 	 14.4029944 	 1123.0177 	 1.088 	 95.027
0.5243337 	 14.6063068 	 1133.0879 	 1.088 	 95.005
0.5262983 	 14.8113570 	 1148.3414 	 1.087 	 94.988
0.5282417 	 15.0130660 	 1153.0174 	 1.087 	 94.960
0.5301647 	 15.2250110 	 1161.0971 	 1.087 	 94.989
0.5320660 	 15.4311126 	 1169.9160 	 1.087 	 94.935
0.5339467 	 15.6439372 	 1191.4147 	 1.088 	 94.973
0.5358070 	 15.8516293 	 1204.0665 	 1.087 	 94.959
0.5376472 	 16.0618675 	 1222.4782 	 1.087 	 94.945
0.5394687 	 16.2782425 	 1238.9108 	 1.086 	 94.938
0.5412719 	 16.4933556 	 1262.8592 	 1.087 	 94.932
0.5430551 	 16.7153620 	 1278.9450 	 1.087 	 94.928
0.5448190 	 16.9362827 	 1297.5221 	 1.087 	 94.911
0.5465641 	 17.1591276 	 1323.8800 	 1.086 	 94.927
0.5482904 	 17.3825975 	 1341.1495 	 1.086 	 94.932
0.5499982 	 17.6015417 	 1380.7561 	 1.087 	 94.891
0.5516884 	 17.8352877 	 1421.0517 	 1.087 	 94.917
0.5533601 	 18.0592709 	 1475.7419 	 1.087 	 94.911
0.5550139 	 18.2829848 	 1539.6502 	 1.088 	 94.881
0.5566530 	 18.5129298 	 1634.9075 	 1.087 	 94.895
0.5582757 	 18.7459264 	 1783.0471 	 1.087 	 94.885
0.5598810 	 18.9765565 	 2007.9460 	 1.088 	 94.904
0.5614706 	 19.2060067 	 2309.6528 	 1.088 	 94.885
0.5630442 	 19.4329749 	 2724.2218 	 1.088 	 94.874
0.5646033 	 19.6672827 	 3336.1147 	 1.090 	 94.873
0.5661480 	 19.8988002 	 4129.3551 	 1.091 	 94.870
0.5676771 	 20.1372571 	 5252.3294 	 1.093 	 94.873
0.5691917 	 20.3716250 	 6872.1569 	 1.096 	 94.865
0.5706928 	 20.6160831 	 8950.9874 	 1.098 	 94.860
0.5721783 	 20.8482380 	 11746.5317 	 1.100 	 94.834
0.5736495 	 21.1069068 	 14591.6796 	 1.103 	 94.803
0.5751046 	 21.3617118 	 18432.7431 	 1.105 	 94.800
0.5765469 	 21.6336023 	 22580.2086 	 1.109 	 94.810
0.5779719 	 21.9173757 	 26420.4976 	 1.112 	 94.805
0.5793818 	 22.2079615 	 30607.0463 	 1.114 	 94.777
0.5807752 	 22.5131302 	 34871.9253 	 1.116 	 94.746
0.5821516 	 22.8332072 	 39188.2641 	 1.117 	 94.745
0.5835112 	 23.1628627 	 42533.5990 	 1.117 	 94.734
0.5848530 	 23.5081892 	 45751.4773 	 1.118 	 94.732
0.5861768 	 23.8543470 	 48893.7944 	 1.117 	 94.668
0.5874828 	 24.2071057 	 51725.4077 	 1.115 	 94.653
0.5887725 	 24.5759372 	 54795.3833 	 1.114 	 94.646
0.5900444 	 24.9608230 	 57709.8434 	 1.111 	 94.658
0.5912988 	 25.3495144 	 61196.4534 	 1.108 	 94.639
0.5925368 	 25.7309544 	 65981.8877 	 1.104 	 94.621
0.5937585 	 26.1316680 	 72027.2953 	 1.099 	 94.614
0.5949622 	 26.5290536 	 79622.7952 	 1.096 	 94.585
0.5961497 	 26.9350961 	 89035.9900 	 1.092 	 94.579
0.5973204 	 27.3601681 	 100513.3819 	 1.089 	 94.601
0.5984754 	 27.7618666 	 114118.8724 	 1.085 	 94.560
0.5996141 	 28.1999949 	 128414.4607 	 1.083 	 94.589
0.6007373 	 28.6165728 	 144348.8164 	 1.078 	 94.586
0.6018453 	 29.0761439 	 160467.8567 	 1.077 	 94.568
0.6029373 	 29.5471187 	 175421.5386 	 1.074 	 94.595
0.6040125 	 30.0207808 	 191370.2844 	 1.072 	 94.602
0.6050724 	 30.5122150 	 207820.5939 	 1.071 	 94.587
0.6061157 	 31.0334491 	 223592.6020 	 1.069 	 94.611
0.6071423 	 31.5473582 	 240107.1412 	 1.067 	 94.604
0.6081535 	 32.0853254 	 257453.1827 	 1.066 	 94.608
0.6091491 	 32.6488751 	 275999.9053 	 1.063 	 94.595
0.6101287 	 33.2185223 	 295122.6809 	 1.063 	 94.601
0.6110917 	 33.7974186 	 316697.3373 	 1.060 	 94.598
0.6120396 	 34.4186250 	 338170.6708 	 1.059 	 94.643
0.6129713 	 35.0417075 	 363978.1879 	 1.057 	 94.649
0.6138872 	 35.6706686 	 390268.7225 	 1.055 	 94.659
0.6147874 	 36.3107742 	 415415.3111 	 1.053 	 94.624
0.6156727 	 36.9661444 	 442830.9464 	 1.051 	 94.647
0.6165430 	 37.6566845 	 468893.5263 	 1.049 	 94.661
0.6173977 	 38.3423140 	 492525.9944 	 1.048 	 94.675
0.6182380 	 39.0442830 	 517451.3163 	 1.046 	 94.681
0.6190647 	 39.7641162 	 536723.5643 	 1.044 	 94.693
0.6198773 	 40.4875629 	 557691.4685 	 1.042 	 94.693
0.6206756 	 41.2229134 	 580027.2542 	 1.041 	 94.682
0.6214605 	 41.9803479 	 600594.9420 	 1.038 	 94.693
0.6222315 	 42.7272400 	 619990.2783 	 1.037 	 94.708
0.6229905 	 43.4986426 	 639070.1842 	 1.035 	 94.702
0.6237363 	 44.2594281 	 659595.3747 	 1.033 	 94.703
0.6244698 	 45.0351259 	 677849.5173 	 1.031 	 94.667
0.6251907 	 45.8208636 	 699742.3156 	 1.029 	 94.694
0.6259001 	 46.6144778 	 722060.1541 	 1.028 	 94.670
0.6265980 	 47.4281814 	 744583.3068 	 1.027 	 94.728
0.6272853 	 48.2254673 	 769141.3785 	 1.025 	 94.690
0.6279609 	 49.0468632 	 790894.0146 	 1.024 	 94.682
0.6286259 	 49.8761717 	 815812.5186 	 1.023 	 94.669
0.6292799 	 50.7285448 	 840767.0391 	 1.022 	 94.634
0.6299238 	 51.6371625 	 865302.7384 	 1.022 	 94.642
