N=100 	 R=1000000 	 s=1 	 Save [density, Z, rho_t, like/unlike, events per sweep]
0.0001334 	 1.0005092 	 1.1026 	 1.005 	 10.124
0.0132516 	 1.1627533 	 12.1824 	 0.951 	 46.770
0.0260778 	 1.1529041 	 22.9106 	 1.005 	 78.926
0.0385000 	 1.1918102 	 33.3080 	 1.013 	 88.258
0.0505186 	 1.2395472 	 43.8000 	 1.016 	 92.028
0.0621732 	 1.2922029 	 54.1273 	 1.017 	 93.804
0.0734724 	 1.3483581 	 65.0180 	 1.019 	 94.780
0.0844359 	 1.4076852 	 75.8433 	 1.020 	 95.272
0.0950775 	 1.4696384 	 86.1313 	 1.021 	 95.550
0.1054125 	 1.5338628 	 96.5127 	 1.022 	 95.681
0.1154655 	 1.6002219 	 106.5920 	 1.023 	 95.754
0.1252278 	 1.6684521 	 116.9478 	 1.024 	 95.800
0.1347181 	 1.7386384 	 127.8109 	 1.026 	 95.796
0.1439586 	 1.8101801 	 139.7771 	 1.027 	 95.864
0.1529583 	 1.8843604 	 149.9246 	 1.028 	 95.841
0.1617136 	 1.9599882 	 159.8711 	 1.030 	 95.807
0.1702425 	 2.0370997 	 169.2528 	 1.031 	 95.810
0.1785578 	 2.1161002 	 180.1324 	 1.032 	 95.807
0.1866627 	 2.1965271 	 190.6412 	 1.033 	 95.774
0.1945654 	 2.2786075 	 200.3349 	 1.035 	 95.787
0.2022812 	 2.3624584 	 208.8824 	 1.036 	 95.738
0.2098070 	 2.4478029 	 219.6118 	 1.038 	 95.709
0.2171527 	 2.5343472 	 230.1205 	 1.039 	 95.705
0.2243232 	 2.6229147 	 243.1626 	 1.040 	 95.680
0.2313362 	 2.7134434 	 254.3468 	 1.041 	 95.681
0.2381866 	 2.8042547 	 264.2806 	 1.042 	 95.632
0.2448799 	 2.8976648 	 276.3201 	 1.043 	 95.618
0.2514226 	 2.9927319 	 286.5160 	 1.044 	 95.638
0.2578225 	 3.0885610 	 297.3593 	 1.046 	 95.591
0.2640837 	 3.1864185 	 307.0918 	 1.047 	 95.589
0.2702120 	 3.2853577 	 317.5469 	 1.047 	 95.583
0.2762129 	 3.3866022 	 327.5105 	 1.048 	 95.578
0.2820902 	 3.4891620 	 337.4418 	 1.050 	 95.557
0.2878414 	 3.5930437 	 347.3174 	 1.051 	 95.536
0.2934734 	 3.6979117 	 358.7562 	 1.052 	 95.525
0.2989980 	 3.8051798 	 369.9677 	 1.053 	 95.515
0.3044116 	 3.9136528 	 380.4513 	 1.054 	 95.517
0.3097175 	 4.0238999 	 392.0618 	 1.054 	 95.510
0.3149199 	 4.1353251 	 400.7411 	 1.055 	 95.495
0.3200219 	 4.2474059 	 410.6998 	 1.057 	 95.448
0.3250287 	 4.3623370 	 419.0403 	 1.058 	 95.462
0.3299394 	 4.4783903 	 427.1602 	 1.059 	 95.456
0.3347623 	 4.5950471 	 439.0952 	 1.060 	 95.446
0.3394957 	 4.7137470 	 454.8164 	 1.061 	 95.419
0.3441446 	 4.8343132 	 467.2735 	 1.061 	 95.406
0.3487079 	 4.9563509 	 475.5397 	 1.063 	 95.418
0.3531887 	 5.0792709 	 487.1363 	 1.063 	 95.384
0.3575877 	 5.2037192 	 500.0854 	 1.064 	 95.375
0.3619102 	 5.3293808 	 507.8062 	 1.065 	 95.353
0.3661597 	 5.4582273 	 515.1006 	 1.066 	 95.378
0.3703386 	 5.5869939 	 526.6058 	 1.067 	 95.361
0.3744440 	 5.7152735 	 535.1955 	 1.067 	 95.325
0.3784823 	 5.8491757 	 546.3932 	 1.068 	 95.337
0.3824524 	 5.9812183 	 555.6082 	 1.069 	 95.303
0.3863597 	 6.1175067 	 573.0873 	 1.069 	 95.309
0.3901991 	 6.2536587 	 580.4082 	 1.071 	 95.311
0.3939770 	 6.3908870 	 593.4878 	 1.071 	 95.303
0.3976952 	 6.5298432 	 601.2001 	 1.072 	 95.289
0.4013538 	 6.6700393 	 611.0656 	 1.072 	 95.300
0.4049572 	 6.8123834 	 624.7475 	 1.073 	 95.270
0.4085039 	 6.9550563 	 633.1199 	 1.073 	 95.275
0.4119970 	 7.1003266 	 644.1257 	 1.074 	 95.236
0.4154349 	 7.2445830 	 653.3716 	 1.075 	 95.224
0.4188226 	 7.3927820 	 667.8244 	 1.075 	 95.201
0.4221569 	 7.5420128 	 675.0971 	 1.076 	 95.246
0.4254441 	 7.6934268 	 684.9057 	 1.077 	 95.221
0.4286830 	 7.8441664 	 692.9831 	 1.077 	 95.220
0.4318733 	 7.9952948 	 699.4302 	 1.078 	 95.203
0.4350165 	 8.1490642 	 712.8623 	 1.078 	 95.201
0.4381131 	 8.3056171 	 723.1066 	 1.079 	 95.189
0.4411700 	 8.4635607 	 725.0283 	 1.079 	 95.180
0.4441783 	 8.6204874 	 734.2152 	 1.079 	 95.186
0.4471469 	 8.7816172 	 750.6162 	 1.080 	 95.180
0.4500728 	 8.9417873 	 758.1364 	 1.081 	 95.173
0.4529604 	 9.1044369 	 765.7565 	 1.082 	 95.149
0.4558080 	 9.2664235 	 777.2636 	 1.082 	 95.142
0.4586155 	 9.4315724 	 787.9869 	 1.082 	 95.149
0.4613866 	 9.5991712 	 806.3614 	 1.081 	 95.161
0.4641200 	 9.7661462 	 818.9270 	 1.082 	 95.116
0.4668180 	 9.9373938 	 829.3242 	 1.083 	 95.129
0.4694812 	 10.1046410 	 839.5676 	 1.083 	 95.111
0.4721100 	 10.2745385 	 842.3845 	 1.083 	 95.090
0.4747037 	 10.4477949 	 853.2994 	 1.084 	 95.092
0.4772629 	 10.6239199 	 869.2710 	 1.084 	 95.119
0.4797915 	 10.7997191 	 875.1282 	 1.084 	 95.092
0.4822866 	 10.9779629 	 888.8667 	 1.085 	 95.089
0.4847488 	 11.1571030 	 898.8369 	 1.085 	 95.101
0.4871815 	 11.3346769 	 912.1134 	 1.084 	 95.071
0.4895848 	 11.5152173 	 915.7630 	 1.084 	 95.050
0.4919576 	 11.6999299 	 928.7585 	 1.085 	 95.057
0.4943013 	 11.8840748 	 933.1922 	 1.086 	 95.065
0.4966174 	 12.0724389 	 941.5653 	 1.086 	 95.086
0.4989033 	 12.2594207 	 956.1277 	 1.086 	 95.075
0.5011631 	 12.4437700 	 965.4807 	 1.086 	 95.044
0.5033961 	 12.6331138 	 977.3692 	 1.087 	 95.047
0.5056019 	 12.8238911 	 1000.8529 	 1.086 	 95.042
0.5077842 	 13.0148006 	 1020.5621 	 1.086 	 95.024
0.5099406 	 13.2076457 	 1034.4089 	 1.086 	 95.038
0.5120706 	 13.4051369 	 1038.6761 	 1.087 	 95.018
0.5141741 	 13.5992720 	 1048.1203 	 1.087 	 95.000
0.5162550 	 13.8016391 	 1063.0046 	 1.087 	 95.015
0.5183120 	 13.9985543 	 1075.5422 	 1.088 	 94.993
0.5203463 	 14.1998588 	 1085.6328 	 1.087 	 95.004
0.5223576 	 14.4006010 	 1088.7356 	 1.088 	 94.996
0.5243463 	 14.6063276 	 1097.2430 	 1.087 	 94.977
0.5263130 	 14.8098926 	 1108.7984 	 1.087 	 94.977
0.5282564 	 15.0148751 	 1117.7867 	 1.087 	 94.958
0.5301784 	 15.2253187 	 1130.0824 	 1.087 	 94.984
0.5320794 	 15.4276921 	 1136.3940 	 1.086 	 94.936
0.5339597 	 15.6505829 	 1148.2292 	 1.087 	 94.986
0.5358203 	 15.8637928 	 1163.4337 	 1.087 	 94.972
0.5376592 	 16.0716960 	 1175.5403 	 1.086 	 94.972
0.5394785 	 16.2845580 	 1185.1845 	 1.087 	 94.943
0.5412781 	 16.5002353 	 1207.6814 	 1.087 	 94.921
0.5430605 	 16.7162835 	 1218.8182 	 1.088 	 94.944
0.5448231 	 16.9367054 	 1230.1844 	 1.087 	 94.930
0.5465677 	 17.1627152 	 1248.1557 	 1.087 	 94.955
0.5482920 	 17.3869656 	 1279.5637 	 1.087 	 94.946
0.5499997 	 17.6046112 	 1301.3363 	 1.086 	 94.903
0.5516890 	 17.8371388 	 1337.5799 	 1.085 	 94.943
0.5533624 	 18.0645880 	 1388.9723 	 1.086 	 94.925
0.5550182 	 18.2967118 	 1448.6833 	 1.086 	 94.924
0.5566566 	 18.5224339 	 1501.8661 	 1.085 	 94.900
0.5582782 	 18.7493840 	 1603.5313 	 1.084 	 94.908
0.5598838 	 18.9815528 	 1741.6466 	 1.084 	 94.925
0.5614742 	 19.2096728 	 1922.7867 	 1.084 	 94.892
0.5630481 	 19.4420458 	 2204.6759 	 1.084 	 94.895
0.5646055 	 19.6776280 	 2651.0378 	 1.083 	 94.885
0.5661496 	 19.9058962 	 3338.8593 	 1.083 	 94.861
0.5676785 	 20.1384880 	 4438.1002 	 1.081 	 94.869
0.5691928 	 20.3819680 	 6168.2344 	 1.080 	 94.891
0.5706909 	 20.6086519 	 9282.6790 	 1.080 	 94.867
0.5721760 	 20.8328808 	 14729.8027 	 1.078 	 94.880
0.5736493 	 21.0676920 	 22548.0670 	 1.077 	 94.890
0.5751103 	 21.2957723 	 35053.2768 	 1.075 	 94.869
0.5765586 	 21.5208488 	 53773.2469 	 1.072 	 94.877
0.5779936 	 21.7474689 	 79645.7713 	 1.071 	 94.898
0.5794154 	 21.9905848 	 113610.7309 	 1.069 	 94.911
0.5808248 	 22.2369414 	 155520.7203 	 1.068 	 94.915
0.5822209 	 22.4998592 	 207164.2354 	 1.066 	 94.943
0.5836016 	 22.7901645 	 261856.4145 	 1.065 	 94.964
0.5849675 	 23.1008110 	 321510.6287 	 1.065 	 94.961
0.5863164 	 23.4315506 	 382409.3732 	 1.066 	 95.014
0.5876487 	 23.7776537 	 439946.3450 	 1.067 	 95.014
0.5889633 	 24.1529338 	 486899.5177 	 1.068 	 95.001
0.5902594 	 24.5339549 	 538542.6169 	 1.070 	 95.029
0.5915359 	 24.9546598 	 584068.5451 	 1.073 	 95.032
0.5927922 	 25.3701162 	 620433.9570 	 1.075 	 95.041
0.5940299 	 25.8127776 	 651479.3836 	 1.076 	 95.019
0.5952491 	 26.2618856 	 682601.7097 	 1.079 	 95.024
0.5964477 	 26.7277710 	 704015.5521 	 1.082 	 95.035
0.5976280 	 27.2106129 	 716217.0744 	 1.084 	 95.031
0.5987873 	 27.7038240 	 722694.0368 	 1.085 	 94.999
0.5999278 	 28.2115208 	 728082.0462 	 1.088 	 94.996
0.6010485 	 28.7348052 	 726229.2012 	 1.090 	 94.980
0.6021508 	 29.2573018 	 718686.8357 	 1.091 	 94.971
0.6032341 	 29.7961328 	 704877.5267 	 1.091 	 94.960
0.6043000 	 30.3356465 	 684875.6633 	 1.092 	 94.958
0.6053472 	 30.8829976 	 660962.5760 	 1.092 	 94.945
0.6063783 	 31.4197579 	 628588.3723 	 1.090 	 94.893
0.6073919 	 31.9660254 	 584009.8978 	 1.087 	 94.884
0.6083905 	 32.4991820 	 536514.9360 	 1.083 	 94.868
0.6093737 	 33.0263515 	 481896.1912 	 1.075 	 94.852
0.6103419 	 33.5315109 	 429069.0429 	 1.066 	 94.824
0.6112974 	 34.0475163 	 386702.4831 	 1.054 	 94.767
0.6122402 	 34.5325146 	 358784.2512 	 1.040 	 94.776
0.6131713 	 35.0052452 	 354657.5487 	 1.023 	 94.732
0.6140906 	 35.4980366 	 372498.6725 	 1.007 	 94.692
0.6149976 	 35.9676398 	 416456.8068 	 0.990 	 94.645
0.6158942 	 36.4946333 	 476692.7463 	 0.974 	 94.619
0.6167787 	 37.0342796 	 544503.2538 	 0.960 	 94.603
0.6176502 	 37.6075844 	 617892.2358 	 0.947 	 94.556
0.6185092 	 38.2258029 	 684339.9335 	 0.937 	 94.512
0.6193548 	 38.8784464 	 745977.4636 	 0.929 	 94.514
0.6201851 	 39.5688142 	 798694.7953 	 0.922 	 94.478
0.6210024 	 40.2910827 	 841101.0544 	 0.918 	 94.447
0.6218062 	 41.0395394 	 876053.5853 	 0.914 	 94.447
0.6225965 	 41.8200589 	 904659.3659 	 0.912 	 94.417
0.6233718 	 42.6177391 	 927463.4561 	 0.910 	 94.400
0.6241328 	 43.4628197 	 943128.4951 	 0.909 	 94.418
0.6248800 	 44.3102280 	 954931.8743 	 0.909 	 94.342
0.6256134 	 45.1745544 	 965762.3614 	 0.909 	 94.346
0.6263335 	 46.0710572 	 973314.7922 	 0.909 	 94.326
0.6270394 	 46.9846127 	 979251.9364 	 0.910 	 94.300
0.6277320 	 47.9327463 	 984071.0595 	 0.910 	 94.300
0.6284115 	 48.8769847 	 986410.5544 	 0.911 	 94.281
0.6290781 	 49.8492996 	 988972.8670 	 0.912 	 94.207
0.6297319 	 50.8543918 	 991040.8834 	 0.914 	 94.205
