N=100 	 R=1000000 	 s=1 	 Save [density, Z, rho_t, like/unlike, events per sweep]
0.0001339 	 1.0005106 	 1.1027 	 1.004 	 10.124
0.0132566 	 1.1626329 	 12.2077 	 0.951 	 46.780
0.0260794 	 1.1528193 	 22.8401 	 1.004 	 78.922
0.0384951 	 1.1918050 	 33.2760 	 1.013 	 88.246
0.0505080 	 1.2395586 	 43.7441 	 1.016 	 92.022
0.0621593 	 1.2920952 	 54.3130 	 1.017 	 93.811
0.0734672 	 1.3482378 	 64.8588 	 1.019 	 94.785
0.0844254 	 1.4076597 	 75.5775 	 1.020 	 95.263
0.0950729 	 1.4695209 	 85.4105 	 1.021 	 95.536
0.1054074 	 1.5336791 	 95.6692 	 1.022 	 95.684
0.1154483 	 1.6000458 	 106.7646 	 1.023 	 95.746
0.1252181 	 1.6686729 	 117.4281 	 1.025 	 95.833
0.1347217 	 1.7385701 	 128.8522 	 1.026 	 95.806
0.1439544 	 1.8102513 	 139.7811 	 1.027 	 95.896
0.1529467 	 1.8844436 	 149.8679 	 1.029 	 95.896
0.1617007 	 1.9598182 	 162.0172 	 1.030 	 95.816
0.1702317 	 2.0371341 	 173.1220 	 1.032 	 95.797
0.1785510 	 2.1156316 	 182.7482 	 1.033 	 95.748
0.1866607 	 2.1964885 	 193.5736 	 1.033 	 95.761
0.1945652 	 2.2784006 	 203.9946 	 1.035 	 95.729
0.2022751 	 2.3623680 	 216.7320 	 1.036 	 95.734
0.2098049 	 2.4477274 	 228.6224 	 1.037 	 95.729
0.2171539 	 2.5342248 	 238.8621 	 1.038 	 95.688
0.2243272 	 2.6230710 	 248.2917 	 1.040 	 95.723
0.2313337 	 2.7126637 	 257.2142 	 1.041 	 95.644
0.2381863 	 2.8045238 	 267.4281 	 1.042 	 95.632
0.2448814 	 2.8974425 	 276.2644 	 1.043 	 95.629
0.2514239 	 2.9925082 	 286.7486 	 1.044 	 95.613
0.2578281 	 3.0891325 	 298.7921 	 1.046 	 95.618
0.2640897 	 3.1866658 	 312.7657 	 1.046 	 95.592
0.2702190 	 3.2856275 	 324.7767 	 1.048 	 95.577
0.2762188 	 3.3866202 	 336.7099 	 1.048 	 95.557
0.2820954 	 3.4893642 	 346.8031 	 1.049 	 95.562
0.2878505 	 3.5931209 	 357.4383 	 1.051 	 95.553
0.2934874 	 3.6989966 	 369.3111 	 1.052 	 95.559
0.2990125 	 3.8051660 	 377.7689 	 1.053 	 95.521
0.3044242 	 3.9133801 	 389.9883 	 1.054 	 95.486
0.3097330 	 4.0232720 	 401.1698 	 1.055 	 95.472
0.3149330 	 4.1355725 	 412.1088 	 1.056 	 95.471
0.3200370 	 4.2489316 	 424.2481 	 1.057 	 95.465
0.3250437 	 4.3622080 	 435.4873 	 1.058 	 95.451
0.3299514 	 4.4784450 	 446.5922 	 1.058 	 95.458
0.3347686 	 4.5948513 	 456.8248 	 1.060 	 95.422
0.3394995 	 4.7145660 	 467.5059 	 1.061 	 95.407
0.3441422 	 4.8337836 	 478.2339 	 1.061 	 95.382
0.3487062 	 4.9550149 	 483.5069 	 1.062 	 95.361
0.3531853 	 5.0793258 	 493.4636 	 1.063 	 95.410
0.3575864 	 5.2036283 	 502.0858 	 1.064 	 95.371
0.3619139 	 5.3297373 	 512.9637 	 1.065 	 95.374
0.3661669 	 5.4581635 	 523.2174 	 1.066 	 95.359
0.3703443 	 5.5867765 	 528.2618 	 1.066 	 95.362
0.3744488 	 5.7175197 	 538.0622 	 1.068 	 95.351
0.3784862 	 5.8492683 	 544.6039 	 1.068 	 95.330
0.3824560 	 5.9835306 	 558.2659 	 1.069 	 95.359
0.3863608 	 6.1175133 	 572.4710 	 1.070 	 95.304
0.3902046 	 6.2525261 	 585.8795 	 1.071 	 95.289
0.3939862 	 6.3898365 	 598.3898 	 1.071 	 95.273
0.3977072 	 6.5289544 	 608.4837 	 1.071 	 95.266
0.4013707 	 6.6715491 	 616.9160 	 1.073 	 95.298
0.4049736 	 6.8124522 	 627.3709 	 1.073 	 95.266
0.4085219 	 6.9539930 	 640.8130 	 1.074 	 95.243
0.4120118 	 7.1021562 	 651.5447 	 1.074 	 95.301
0.4154523 	 7.2461311 	 663.7208 	 1.076 	 95.246
0.4188381 	 7.3946169 	 674.1661 	 1.076 	 95.243
0.4221729 	 7.5402133 	 685.9830 	 1.076 	 95.212
0.4254588 	 7.6923466 	 701.4206 	 1.077 	 95.207
0.4286961 	 7.8431058 	 709.6514 	 1.077 	 95.236
0.4318844 	 7.9968406 	 722.9728 	 1.078 	 95.198
0.4350276 	 8.1506075 	 734.6947 	 1.078 	 95.192
0.4381252 	 8.3060835 	 744.8763 	 1.078 	 95.185
0.4411816 	 8.4644939 	 750.4888 	 1.079 	 95.194
0.4441939 	 8.6212770 	 765.9889 	 1.079 	 95.157
0.4471632 	 8.7825831 	 786.2253 	 1.080 	 95.187
0.4500912 	 8.9421978 	 797.4448 	 1.081 	 95.158
0.4529775 	 9.1048275 	 811.7634 	 1.081 	 95.151
0.4558237 	 9.2690096 	 830.4727 	 1.081 	 95.145
0.4586326 	 9.4339972 	 846.2896 	 1.082 	 95.132
0.4614017 	 9.5977211 	 854.0753 	 1.082 	 95.125
0.4641356 	 9.7668090 	 862.4727 	 1.083 	 95.144
0.4668329 	 9.9363653 	 879.6604 	 1.083 	 95.147
0.4694963 	 10.1057891 	 895.1214 	 1.083 	 95.113
0.4721214 	 10.2797234 	 902.7292 	 1.084 	 95.112
0.4747127 	 10.4489641 	 920.6329 	 1.083 	 95.091
0.4772723 	 10.6238653 	 926.9538 	 1.083 	 95.097
0.4797997 	 10.8032277 	 935.3813 	 1.084 	 95.100
0.4822946 	 10.9777560 	 946.4422 	 1.084 	 95.105
0.4847597 	 11.1568057 	 959.4651 	 1.084 	 95.090
0.4871915 	 11.3370469 	 966.1598 	 1.084 	 95.072
0.4895947 	 11.5188405 	 976.0899 	 1.084 	 95.081
0.4919675 	 11.6996766 	 991.5177 	 1.085 	 95.091
0.4943120 	 11.8836036 	 1000.3397 	 1.086 	 95.032
0.4966274 	 12.0708287 	 1009.4002 	 1.085 	 95.073
0.4989141 	 12.2566191 	 1026.4998 	 1.086 	 95.047
0.5011739 	 12.4449918 	 1036.2832 	 1.087 	 95.074
0.5034073 	 12.6354401 	 1051.0016 	 1.087 	 95.068
0.5056153 	 12.8239385 	 1060.7240 	 1.088 	 95.038
0.5077967 	 13.0132649 	 1074.7693 	 1.087 	 95.020
0.5099515 	 13.2080206 	 1088.4767 	 1.087 	 95.018
0.5120804 	 13.4075167 	 1108.6512 	 1.087 	 95.016
0.5141835 	 13.6053762 	 1118.6442 	 1.087 	 95.040
0.5162640 	 13.8051370 	 1125.1000 	 1.088 	 95.032
0.5183187 	 13.9974993 	 1136.3251 	 1.087 	 94.966
0.5203534 	 14.1989096 	 1145.8080 	 1.088 	 95.000
0.5223644 	 14.3965148 	 1152.7677 	 1.087 	 94.964
0.5243518 	 14.6059935 	 1169.9941 	 1.088 	 95.000
0.5263164 	 14.8126300 	 1182.4894 	 1.087 	 95.005
0.5282614 	 15.0201539 	 1199.3721 	 1.087 	 95.008
0.5301828 	 15.2240818 	 1220.9670 	 1.088 	 94.977
0.5320837 	 15.4328206 	 1234.7609 	 1.088 	 94.970
0.5339659 	 15.6404774 	 1251.3723 	 1.087 	 94.954
0.5358256 	 15.8561575 	 1275.8263 	 1.086 	 94.976
0.5376662 	 16.0677568 	 1287.1158 	 1.086 	 94.961
0.5394852 	 16.2807377 	 1312.7396 	 1.086 	 94.948
0.5412847 	 16.4998620 	 1326.9713 	 1.087 	 94.958
0.5430667 	 16.7187535 	 1345.6602 	 1.086 	 94.946
0.5448288 	 16.9405176 	 1358.7829 	 1.087 	 94.963
0.5465723 	 17.1575001 	 1371.0709 	 1.086 	 94.908
0.5482975 	 17.3824767 	 1385.3749 	 1.086 	 94.925
0.5500052 	 17.5965659 	 1398.5221 	 1.085 	 94.882
0.5516958 	 17.8245172 	 1423.5331 	 1.085 	 94.917
0.5533696 	 18.0522018 	 1460.2472 	 1.085 	 94.909
0.5550255 	 18.2843491 	 1520.0839 	 1.085 	 94.914
0.5566637 	 18.5177333 	 1590.6406 	 1.086 	 94.898
0.5582855 	 18.7484932 	 1678.3160 	 1.085 	 94.892
0.5598908 	 18.9752535 	 1787.9189 	 1.084 	 94.878
0.5614798 	 19.2096917 	 1923.5479 	 1.083 	 94.854
0.5630529 	 19.4612750 	 2114.3230 	 1.082 	 94.881
0.5646104 	 19.6926857 	 2353.2756 	 1.082 	 94.858
0.5661522 	 19.9445838 	 2667.7957 	 1.081 	 94.880
0.5676773 	 20.1913302 	 3095.8867 	 1.080 	 94.888
0.5691868 	 20.4374521 	 3649.5651 	 1.079 	 94.897
0.5706823 	 20.6808424 	 4435.7839 	 1.078 	 94.853
0.5721616 	 20.9370875 	 5471.5360 	 1.077 	 94.856
0.5736260 	 21.2009559 	 6864.4624 	 1.075 	 94.900
0.5750758 	 21.4574267 	 8901.2900 	 1.073 	 94.847
0.5765105 	 21.7334966 	 11294.7962 	 1.071 	 94.873
0.5779299 	 22.0089386 	 14794.4938 	 1.069 	 94.856
0.5793327 	 22.2952422 	 19236.7777 	 1.066 	 94.849
0.5807210 	 22.5905202 	 24966.6605 	 1.063 	 94.878
0.5820916 	 22.8898487 	 32833.7312 	 1.059 	 94.861
0.5834465 	 23.2020735 	 41858.3086 	 1.056 	 94.889
0.5847860 	 23.5296064 	 52449.1471 	 1.054 	 94.899
0.5861103 	 23.8603038 	 64103.8335 	 1.051 	 94.875
0.5874159 	 24.2241844 	 77692.1292 	 1.048 	 94.902
0.5887053 	 24.5722669 	 92351.3949 	 1.046 	 94.895
0.5899770 	 24.9501688 	 108496.8829 	 1.045 	 94.888
0.5912307 	 25.3521049 	 126268.1783 	 1.044 	 94.881
0.5924675 	 25.7633605 	 141485.4475 	 1.043 	 94.926
0.5936852 	 26.1800190 	 157271.3721 	 1.042 	 94.903
0.5948847 	 26.6157809 	 174967.0976 	 1.042 	 94.908
0.5960669 	 27.0594116 	 190950.5345 	 1.042 	 94.888
0.5972311 	 27.5333847 	 207032.9604 	 1.043 	 94.914
0.5983772 	 28.0050086 	 221047.3902 	 1.043 	 94.893
0.5995053 	 28.4919483 	 234761.6196 	 1.045 	 94.882
0.6006140 	 29.0018766 	 245350.0133 	 1.045 	 94.880
0.6017044 	 29.5199577 	 254982.7164 	 1.047 	 94.906
0.6027774 	 30.0475639 	 265902.4898 	 1.049 	 94.869
0.6038329 	 30.5870858 	 276612.9617 	 1.051 	 94.879
0.6048710 	 31.1338398 	 285323.0209 	 1.053 	 94.846
0.6058910 	 31.7077681 	 293536.5476 	 1.056 	 94.866
0.6068940 	 32.2828877 	 300467.7159 	 1.057 	 94.886
0.6078803 	 32.8647665 	 309173.6952 	 1.060 	 94.848
0.6088496 	 33.4738058 	 316036.1892 	 1.063 	 94.885
0.6098032 	 34.0790282 	 324171.9798 	 1.065 	 94.877
0.6107406 	 34.7023796 	 330646.0631 	 1.068 	 94.858
0.6116621 	 35.3356221 	 336118.7914 	 1.070 	 94.867
0.6125683 	 35.9704476 	 344453.9135 	 1.073 	 94.862
0.6134594 	 36.6282426 	 355353.7185 	 1.076 	 94.901
0.6143347 	 37.2903916 	 365553.0848 	 1.079 	 94.871
0.6151951 	 37.9715080 	 375728.8103 	 1.081 	 94.881
0.6160417 	 38.6627653 	 383743.8445 	 1.084 	 94.922
0.6168739 	 39.3491166 	 391423.6627 	 1.086 	 94.875
0.6176913 	 40.0729895 	 398002.7496 	 1.088 	 94.924
0.6184951 	 40.7831025 	 404946.8949 	 1.090 	 94.907
0.6192856 	 41.5171264 	 412936.5699 	 1.091 	 94.906
0.6200629 	 42.2798787 	 419424.9288 	 1.093 	 94.941
0.6208270 	 43.0402376 	 421543.9834 	 1.093 	 94.953
0.6215778 	 43.8202119 	 418302.7751 	 1.094 	 94.937
0.6223164 	 44.6041559 	 413046.2275 	 1.094 	 94.935
0.6230429 	 45.4034928 	 406094.7539 	 1.094 	 94.958
0.6237566 	 46.2314962 	 396579.1366 	 1.093 	 94.963
0.6244583 	 47.0578464 	 383492.3068 	 1.092 	 94.983
0.6251479 	 47.8828848 	 363705.0570 	 1.090 	 94.948
0.6258259 	 48.7483701 	 342770.1406 	 1.088 	 95.004
0.6264928 	 49.5869157 	 321082.1535 	 1.085 	 94.984
0.6271483 	 50.4677117 	 303915.4030 	 1.082 	 94.990
0.6277932 	 51.3447258 	 283910.7935 	 1.079 	 95.027
0.6284270 	 52.2105903 	 265761.7739 	 1.075 	 95.046
0.6290517 	 53.0863299 	 252465.7185 	 1.070 	 95.039
0.6296667 	 53.9644483 	 247000.8851 	 1.067 	 95.067
