N=100 	 R=1000000 	 s=1 	 Save [density, Z, rho_t, like/unlike, events per sweep]
0.0001342 	 1.0005093 	 1.1028 	 0.999 	 10.124
0.0132582 	 1.1625706 	 12.2090 	 0.951 	 46.815
0.0260928 	 1.1528423 	 22.8012 	 1.004 	 78.903
0.0385168 	 1.1918258 	 33.2351 	 1.013 	 88.235
0.0505300 	 1.2396693 	 43.7930 	 1.016 	 92.046
0.0621866 	 1.2922812 	 54.1134 	 1.018 	 93.799
0.0734767 	 1.3482521 	 64.2933 	 1.019 	 94.789
0.0844522 	 1.4077319 	 74.3180 	 1.020 	 95.250
0.0950941 	 1.4695848 	 84.4700 	 1.021 	 95.501
0.1054295 	 1.5340946 	 95.0150 	 1.022 	 95.701
0.1154758 	 1.6001319 	 105.8934 	 1.023 	 95.749
0.1252396 	 1.6685422 	 116.9531 	 1.025 	 95.759
0.1347379 	 1.7388517 	 127.8128 	 1.026 	 95.817
0.1439788 	 1.8103453 	 137.7187 	 1.028 	 95.866
0.1529685 	 1.8842972 	 147.1784 	 1.028 	 95.845
0.1617195 	 1.9597517 	 157.8763 	 1.030 	 95.826
0.1702510 	 2.0371206 	 167.7253 	 1.031 	 95.831
0.1785568 	 2.1159757 	 177.4134 	 1.032 	 95.766
0.1866658 	 2.1963875 	 188.4458 	 1.034 	 95.775
0.1945666 	 2.2790741 	 198.9201 	 1.035 	 95.783
0.2022663 	 2.3621966 	 209.2384 	 1.036 	 95.744
0.2097924 	 2.4473333 	 219.6233 	 1.037 	 95.715
0.2171388 	 2.5342032 	 230.1382 	 1.039 	 95.681
0.2243064 	 2.6230672 	 238.9925 	 1.040 	 95.687
0.2313186 	 2.7130009 	 248.6888 	 1.041 	 95.670
0.2381710 	 2.8044654 	 260.8403 	 1.042 	 95.653
0.2448663 	 2.8973863 	 270.7082 	 1.043 	 95.624
0.2514050 	 2.9917943 	 281.8108 	 1.044 	 95.625
0.2578092 	 3.0882956 	 291.5166 	 1.045 	 95.607
0.2640714 	 3.1863361 	 301.3295 	 1.046 	 95.600
0.2701995 	 3.2851135 	 310.7799 	 1.047 	 95.596
0.2761939 	 3.3857654 	 320.7062 	 1.049 	 95.561
0.2820691 	 3.4879517 	 332.3407 	 1.049 	 95.546
0.2878257 	 3.5929178 	 342.0147 	 1.050 	 95.546
0.2934607 	 3.6973896 	 351.2170 	 1.051 	 95.512
0.2989843 	 3.8048590 	 364.5422 	 1.053 	 95.510
0.3043979 	 3.9135034 	 372.7074 	 1.054 	 95.519
0.3097092 	 4.0227399 	 383.7054 	 1.055 	 95.517
0.3149158 	 4.1347282 	 393.4625 	 1.056 	 95.507
0.3200170 	 4.2475597 	 405.0778 	 1.057 	 95.447
0.3250242 	 4.3620122 	 415.0482 	 1.057 	 95.475
0.3299385 	 4.4782299 	 427.1247 	 1.059 	 95.443
0.3347602 	 4.5949593 	 439.0212 	 1.060 	 95.410
0.3394944 	 4.7136365 	 446.9932 	 1.061 	 95.410
0.3441405 	 4.8344808 	 458.4365 	 1.062 	 95.392
0.3487026 	 4.9555774 	 470.8289 	 1.062 	 95.377
0.3531816 	 5.0798400 	 480.0812 	 1.063 	 95.414
0.3575837 	 5.2036870 	 492.5766 	 1.063 	 95.372
0.3619077 	 5.3303887 	 503.4557 	 1.065 	 95.390
0.3661607 	 5.4572229 	 512.5861 	 1.065 	 95.358
0.3703408 	 5.5870339 	 524.9291 	 1.067 	 95.334
0.3744473 	 5.7176307 	 534.1032 	 1.067 	 95.356
0.3784873 	 5.8497661 	 545.0415 	 1.068 	 95.331
0.3824572 	 5.9823044 	 555.2800 	 1.069 	 95.316
0.3863635 	 6.1177817 	 563.2953 	 1.070 	 95.307
0.3902031 	 6.2538388 	 573.2990 	 1.071 	 95.316
0.3939871 	 6.3894613 	 585.0996 	 1.070 	 95.298
0.3977067 	 6.5289787 	 592.0115 	 1.072 	 95.272
0.4013664 	 6.6698458 	 601.2076 	 1.073 	 95.280
0.4049669 	 6.8115232 	 612.5561 	 1.073 	 95.257
0.4085130 	 6.9556295 	 618.9120 	 1.074 	 95.276
0.4120036 	 7.1011157 	 629.9441 	 1.074 	 95.264
0.4154401 	 7.2447814 	 634.7713 	 1.075 	 95.258
0.4188222 	 7.3932520 	 651.8366 	 1.076 	 95.243
0.4221582 	 7.5422896 	 657.4959 	 1.076 	 95.245
0.4254454 	 7.6913848 	 667.6060 	 1.076 	 95.223
0.4286816 	 7.8431241 	 677.5696 	 1.078 	 95.205
0.4318705 	 7.9972803 	 683.8789 	 1.079 	 95.211
0.4350152 	 8.1495731 	 696.8838 	 1.078 	 95.179
0.4381118 	 8.3053096 	 705.0428 	 1.079 	 95.187
0.4411677 	 8.4613209 	 715.1147 	 1.079 	 95.152
0.4441758 	 8.6223479 	 728.6014 	 1.080 	 95.190
0.4471426 	 8.7783138 	 739.6789 	 1.080 	 95.150
0.4500685 	 8.9419480 	 748.6887 	 1.081 	 95.193
0.4529539 	 9.1024193 	 763.3228 	 1.082 	 95.104
0.4557990 	 9.2693537 	 770.8707 	 1.082 	 95.144
0.4586075 	 9.4313893 	 774.8732 	 1.082 	 95.150
0.4613792 	 9.5982384 	 786.4880 	 1.081 	 95.117
0.4641127 	 9.7679923 	 794.7511 	 1.082 	 95.136
0.4668101 	 9.9316191 	 806.6762 	 1.082 	 95.116
0.4694711 	 10.1076171 	 819.3531 	 1.083 	 95.121
0.4720981 	 10.2752471 	 824.3926 	 1.083 	 95.125
0.4746910 	 10.4524706 	 837.6621 	 1.083 	 95.115
0.4772517 	 10.6239998 	 859.8864 	 1.084 	 95.104
0.4797793 	 10.7998042 	 870.9532 	 1.084 	 95.080
0.4822748 	 10.9769944 	 879.6372 	 1.084 	 95.082
0.4847375 	 11.1555759 	 878.7732 	 1.084 	 95.101
0.4871712 	 11.3342138 	 892.8715 	 1.084 	 95.081
0.4895729 	 11.5157208 	 898.2295 	 1.085 	 95.074
0.4919469 	 11.6983777 	 908.8027 	 1.086 	 95.057
0.4942927 	 11.8874987 	 918.8098 	 1.085 	 95.084
0.4966084 	 12.0685696 	 928.4013 	 1.085 	 95.076
0.4988950 	 12.2534611 	 946.7791 	 1.086 	 95.086
0.5011558 	 12.4429705 	 949.5280 	 1.085 	 95.051
0.5033880 	 12.6310981 	 966.4807 	 1.086 	 95.045
0.5055942 	 12.8184267 	 966.5446 	 1.085 	 95.028
0.5077752 	 13.0135342 	 975.9471 	 1.086 	 95.018
0.5099307 	 13.2089240 	 985.1840 	 1.086 	 95.040
0.5120610 	 13.4049612 	 993.5782 	 1.086 	 95.040
0.5141660 	 13.6016430 	 1008.5922 	 1.086 	 94.998
0.5162462 	 13.7999883 	 1017.8849 	 1.086 	 95.045
0.5183054 	 13.9988381 	 1027.8552 	 1.085 	 95.005
0.5203415 	 14.1967614 	 1032.7290 	 1.085 	 95.003
0.5223508 	 14.4002521 	 1044.9120 	 1.086 	 95.002
0.5243385 	 14.6057299 	 1060.9832 	 1.086 	 94.982
0.5263037 	 14.8047699 	 1076.2007 	 1.085 	 94.966
0.5282486 	 15.0091829 	 1088.4499 	 1.085 	 94.964
0.5301718 	 15.2199030 	 1106.8350 	 1.085 	 94.966
0.5320736 	 15.4322520 	 1119.3881 	 1.086 	 94.945
0.5339543 	 15.6426658 	 1131.4252 	 1.086 	 94.972
0.5358141 	 15.8568420 	 1143.3309 	 1.086 	 94.974
0.5376549 	 16.0680584 	 1159.6197 	 1.085 	 94.936
0.5394750 	 16.2839835 	 1173.0765 	 1.086 	 94.944
0.5412765 	 16.4979754 	 1198.8313 	 1.085 	 94.923
0.5430592 	 16.7188658 	 1220.7473 	 1.086 	 94.940
0.5448224 	 16.9350620 	 1242.2772 	 1.085 	 94.935
0.5465685 	 17.1513911 	 1274.5910 	 1.085 	 94.914
0.5482929 	 17.3744143 	 1303.4231 	 1.085 	 94.876
0.5500017 	 17.5962299 	 1341.3938 	 1.085 	 94.906
0.5516942 	 17.8204000 	 1383.1852 	 1.085 	 94.913
0.5533679 	 18.0484106 	 1431.4984 	 1.084 	 94.923
0.5550241 	 18.2788934 	 1494.3852 	 1.085 	 94.922
0.5566647 	 18.5078397 	 1571.2665 	 1.085 	 94.898
0.5582877 	 18.7414794 	 1661.5067 	 1.085 	 94.899
0.5598932 	 18.9783879 	 1780.0609 	 1.084 	 94.898
0.5614829 	 19.2046196 	 1933.3526 	 1.084 	 94.873
0.5630563 	 19.4331966 	 2153.3740 	 1.084 	 94.856
0.5646146 	 19.6771388 	 2451.4235 	 1.084 	 94.842
0.5661573 	 19.9194024 	 2879.5900 	 1.084 	 94.881
0.5676849 	 20.1538919 	 3448.1790 	 1.084 	 94.839
0.5691981 	 20.4090463 	 4261.1868 	 1.083 	 94.859
0.5706950 	 20.6561873 	 5396.2338 	 1.083 	 94.834
0.5721780 	 20.9080984 	 6829.0063 	 1.082 	 94.834
0.5736452 	 21.1638468 	 8874.2502 	 1.081 	 94.823
0.5750970 	 21.4153387 	 11533.1298 	 1.080 	 94.802
0.5765349 	 21.6803788 	 15419.1935 	 1.078 	 94.786
0.5779566 	 21.9619897 	 19950.3837 	 1.076 	 94.826
0.5793633 	 22.2446979 	 26086.1493 	 1.074 	 94.818
0.5807543 	 22.5348631 	 33725.6153 	 1.071 	 94.814
0.5821304 	 22.8289978 	 43673.3980 	 1.068 	 94.799
0.5834897 	 23.1451096 	 56182.6890 	 1.066 	 94.835
0.5848333 	 23.4469068 	 71410.9766 	 1.063 	 94.795
0.5861606 	 23.7865173 	 89050.2988 	 1.060 	 94.762
0.5874725 	 24.1248037 	 109635.9204 	 1.056 	 94.813
0.5887675 	 24.4687200 	 134598.5265 	 1.054 	 94.814
0.5900460 	 24.8316989 	 164181.0642 	 1.053 	 94.817
0.5913089 	 25.1965216 	 193447.1050 	 1.051 	 94.795
0.5925523 	 25.5912309 	 227407.8178 	 1.050 	 94.776
0.5937795 	 25.9836543 	 264400.1049 	 1.049 	 94.748
0.5949900 	 26.3968219 	 304631.0142 	 1.049 	 94.743
0.5961823 	 26.8295096 	 344320.5800 	 1.048 	 94.770
0.5973575 	 27.2639332 	 383434.0180 	 1.049 	 94.714
0.5985152 	 27.7164157 	 422152.6675 	 1.049 	 94.708
0.5996555 	 28.1760692 	 456739.6417 	 1.049 	 94.705
0.6007788 	 28.6656094 	 493970.9283 	 1.050 	 94.673
0.6018843 	 29.1581120 	 525923.0680 	 1.051 	 94.644
0.6029715 	 29.6776424 	 552973.2485 	 1.052 	 94.650
0.6040407 	 30.1880981 	 577159.8342 	 1.052 	 94.607
0.6050938 	 30.7475849 	 592849.1351 	 1.053 	 94.616
0.6061289 	 31.3013267 	 604796.2513 	 1.053 	 94.598
0.6071458 	 31.8754127 	 611782.2548 	 1.054 	 94.602
0.6081452 	 32.4554197 	 611849.5700 	 1.055 	 94.569
0.6091280 	 33.0539386 	 607566.2539 	 1.055 	 94.560
0.6100939 	 33.6738654 	 595908.9849 	 1.056 	 94.561
0.6110430 	 34.2983432 	 579576.2390 	 1.055 	 94.570
0.6119758 	 34.9249394 	 563545.3187 	 1.056 	 94.578
0.6128922 	 35.5850244 	 542586.1874 	 1.055 	 94.587
0.6137937 	 36.2455322 	 519621.2879 	 1.054 	 94.576
0.6146796 	 36.9072014 	 500449.9151 	 1.054 	 94.593
0.6155501 	 37.5865633 	 482014.9774 	 1.052 	 94.598
0.6164050 	 38.2593451 	 466694.2192 	 1.051 	 94.589
0.6172461 	 38.9467822 	 457289.5135 	 1.049 	 94.610
0.6180735 	 39.6511464 	 455943.4230 	 1.047 	 94.650
0.6188870 	 40.3699711 	 462116.9008 	 1.045 	 94.668
0.6196872 	 41.0671276 	 477468.7210 	 1.042 	 94.689
0.6204740 	 41.7820324 	 499713.9381 	 1.038 	 94.708
0.6212479 	 42.5053688 	 531880.0591 	 1.036 	 94.727
0.6220093 	 43.2566298 	 569223.0235 	 1.032 	 94.748
0.6227577 	 44.0252762 	 610202.2991 	 1.030 	 94.767
0.6234936 	 44.8063473 	 650551.3438 	 1.027 	 94.772
0.6242166 	 45.6271061 	 690126.7213 	 1.024 	 94.838
0.6249280 	 46.4583015 	 727411.8556 	 1.021 	 94.821
0.6256273 	 47.3206729 	 760470.5078 	 1.018 	 94.846
0.6263139 	 48.2073441 	 789514.5784 	 1.015 	 94.867
0.6269883 	 49.1160376 	 815336.4067 	 1.013 	 94.877
0.6276501 	 50.0564149 	 835410.4191 	 1.010 	 94.883
0.6283008 	 51.0202196 	 849708.2026 	 1.008 	 94.920
0.6289394 	 51.9890288 	 862541.7281 	 1.006 	 94.880
0.6295665 	 53.0094589 	 871259.8709 	 1.004 	 94.889
