N=100 	 R=1000000 	 s=1 	 Save [density, Z, rho_t, like/unlike, events per sweep]
0.0001355 	 1.0005158 	 1.1026 	 0.994 	 10.125
0.0132527 	 1.1626141 	 12.2099 	 0.950 	 46.778
0.0260788 	 1.1528316 	 22.8095 	 1.003 	 78.931
0.0384934 	 1.1917551 	 33.4755 	 1.013 	 88.229
0.0505063 	 1.2394858 	 43.9125 	 1.016 	 92.002
0.0621507 	 1.2920547 	 54.7139 	 1.018 	 93.801
0.0734471 	 1.3480998 	 65.2409 	 1.019 	 94.771
0.0844147 	 1.4075635 	 76.1874 	 1.020 	 95.248
0.0950515 	 1.4693965 	 86.8839 	 1.021 	 95.504
0.1053841 	 1.5338062 	 97.6465 	 1.022 	 95.692
0.1154324 	 1.5998599 	 108.3526 	 1.024 	 95.730
0.1251956 	 1.6684509 	 119.8433 	 1.025 	 95.808
0.1346967 	 1.7384508 	 130.0197 	 1.026 	 95.810
0.1439318 	 1.8101269 	 140.6808 	 1.027 	 95.897
0.1529249 	 1.8840716 	 150.3575 	 1.028 	 95.863
0.1616850 	 1.9596526 	 161.6414 	 1.030 	 95.840
0.1702162 	 2.0366172 	 172.7224 	 1.031 	 95.790
0.1785370 	 2.1158541 	 184.4803 	 1.032 	 95.792
0.1866307 	 2.1962856 	 196.2333 	 1.033 	 95.773
0.1945412 	 2.2784559 	 207.7665 	 1.035 	 95.765
0.2022490 	 2.3620864 	 219.4557 	 1.036 	 95.738
0.2097720 	 2.4472349 	 230.5399 	 1.037 	 95.747
0.2171219 	 2.5341274 	 240.1020 	 1.039 	 95.697
0.2242987 	 2.6228844 	 250.5742 	 1.040 	 95.704
0.2313113 	 2.7125025 	 259.0877 	 1.040 	 95.654
0.2381660 	 2.8038519 	 268.4128 	 1.042 	 95.645
0.2448627 	 2.8974705 	 278.6814 	 1.043 	 95.619
0.2514085 	 2.9920020 	 288.9026 	 1.044 	 95.624
0.2578153 	 3.0882714 	 298.3065 	 1.045 	 95.612
0.2640797 	 3.1854891 	 306.5992 	 1.047 	 95.556
0.2702118 	 3.2860433 	 319.4118 	 1.047 	 95.590
0.2762122 	 3.3862353 	 330.3892 	 1.049 	 95.552
0.2820880 	 3.4890575 	 342.6361 	 1.050 	 95.566
0.2878404 	 3.5930688 	 353.9828 	 1.051 	 95.543
0.2934756 	 3.6979928 	 364.3033 	 1.052 	 95.547
0.2989944 	 3.8054321 	 374.5263 	 1.053 	 95.527
0.3044092 	 3.9126546 	 384.6972 	 1.054 	 95.486
0.3097156 	 4.0226558 	 392.8382 	 1.055 	 95.493
0.3149195 	 4.1348830 	 401.8094 	 1.056 	 95.487
0.3200244 	 4.2476831 	 412.0427 	 1.057 	 95.487
0.3250321 	 4.3613360 	 420.9454 	 1.058 	 95.458
0.3299434 	 4.4786492 	 433.8718 	 1.059 	 95.446
0.3347655 	 4.5954214 	 443.6808 	 1.059 	 95.454
0.3394971 	 4.7132931 	 451.1900 	 1.061 	 95.414
0.3441417 	 4.8344315 	 459.1579 	 1.062 	 95.410
0.3487044 	 4.9555796 	 469.6163 	 1.062 	 95.393
0.3531854 	 5.0788530 	 482.5250 	 1.063 	 95.366
0.3575887 	 5.2036284 	 492.5949 	 1.064 	 95.366
0.3619152 	 5.3302052 	 505.2946 	 1.065 	 95.361
0.3661642 	 5.4583738 	 514.8905 	 1.065 	 95.365
0.3703376 	 5.5871096 	 525.0508 	 1.067 	 95.329
0.3744484 	 5.7183169 	 533.1434 	 1.067 	 95.346
0.3784852 	 5.8493559 	 543.4765 	 1.068 	 95.340
0.3824555 	 5.9829210 	 551.6720 	 1.069 	 95.320
0.3863607 	 6.1184660 	 565.9493 	 1.070 	 95.331
0.3901998 	 6.2527602 	 579.3250 	 1.070 	 95.301
0.3939784 	 6.3900692 	 583.5474 	 1.071 	 95.274
0.3976987 	 6.5287159 	 593.7368 	 1.072 	 95.270
0.4013583 	 6.6692341 	 604.7599 	 1.073 	 95.261
0.4049617 	 6.8114285 	 612.6733 	 1.073 	 95.268
0.4085086 	 6.9542748 	 622.5148 	 1.073 	 95.239
0.4120007 	 7.1002053 	 635.7655 	 1.075 	 95.278
0.4154421 	 7.2464944 	 648.2265 	 1.075 	 95.249
0.4188277 	 7.3929303 	 657.3999 	 1.076 	 95.226
0.4221646 	 7.5418029 	 664.6504 	 1.076 	 95.238
0.4254479 	 7.6916455 	 679.9861 	 1.077 	 95.214
0.4286817 	 7.8426085 	 689.7657 	 1.077 	 95.210
0.4318701 	 7.9967361 	 701.0566 	 1.079 	 95.205
0.4350147 	 8.1493547 	 711.2927 	 1.078 	 95.192
0.4381124 	 8.3047493 	 722.3919 	 1.079 	 95.163
0.4411682 	 8.4610961 	 734.5634 	 1.080 	 95.157
0.4441790 	 8.6220028 	 739.6732 	 1.080 	 95.213
0.4471496 	 8.7787880 	 749.8646 	 1.081 	 95.148
0.4500766 	 8.9413699 	 762.7839 	 1.082 	 95.141
0.4529652 	 9.1048088 	 775.3758 	 1.081 	 95.158
0.4558131 	 9.2673495 	 781.2104 	 1.082 	 95.145
0.4586223 	 9.4354543 	 794.3321 	 1.083 	 95.150
0.4613924 	 9.5981427 	 805.2935 	 1.083 	 95.129
0.4641270 	 9.7678440 	 815.9376 	 1.083 	 95.131
0.4668250 	 9.9355563 	 826.2414 	 1.083 	 95.115
0.4694861 	 10.1072850 	 837.6311 	 1.084 	 95.131
0.4721132 	 10.2764521 	 850.9100 	 1.084 	 95.096
0.4747069 	 10.4497471 	 865.8099 	 1.084 	 95.100
0.4772665 	 10.6235292 	 877.8842 	 1.084 	 95.104
0.4797949 	 10.8024954 	 889.4448 	 1.084 	 95.109
0.4822877 	 10.9820509 	 900.2285 	 1.084 	 95.112
0.4847505 	 11.1569639 	 907.9786 	 1.085 	 95.082
0.4871845 	 11.3357896 	 921.5139 	 1.085 	 95.082
0.4895853 	 11.5171876 	 923.6918 	 1.086 	 95.057
0.4919584 	 11.7022534 	 933.9800 	 1.086 	 95.050
0.4943006 	 11.8817761 	 944.3926 	 1.086 	 95.042
0.4966155 	 12.0685818 	 952.2385 	 1.086 	 95.062
0.4989015 	 12.2551738 	 960.6253 	 1.086 	 95.049
0.5011617 	 12.4446217 	 973.6480 	 1.087 	 95.069
0.5033948 	 12.6334981 	 984.5934 	 1.087 	 95.033
0.5056044 	 12.8220062 	 1002.5699 	 1.086 	 95.033
0.5077830 	 13.0190224 	 1024.3487 	 1.087 	 95.043
0.5099401 	 13.2127925 	 1036.1934 	 1.087 	 95.051
0.5120715 	 13.4033402 	 1049.9377 	 1.087 	 95.012
0.5141748 	 13.6033056 	 1057.6973 	 1.088 	 95.001
0.5162559 	 13.7971695 	 1057.2049 	 1.087 	 95.012
0.5183118 	 14.0026492 	 1071.3467 	 1.087 	 95.001
0.5203436 	 14.1969199 	 1084.2683 	 1.088 	 94.979
0.5223557 	 14.4057881 	 1098.5533 	 1.088 	 95.019
0.5243452 	 14.6040919 	 1109.5967 	 1.088 	 95.011
0.5263113 	 14.8120045 	 1122.0055 	 1.088 	 94.987
0.5282564 	 15.0182233 	 1138.2364 	 1.088 	 94.976
0.5301795 	 15.2259015 	 1152.3903 	 1.088 	 94.971
0.5320811 	 15.4317051 	 1168.7538 	 1.088 	 94.996
0.5339615 	 15.6399468 	 1183.8112 	 1.089 	 94.931
0.5358215 	 15.8545827 	 1203.1494 	 1.088 	 94.957
0.5376625 	 16.0691935 	 1215.4351 	 1.088 	 94.940
0.5394832 	 16.2795785 	 1229.7577 	 1.089 	 94.947
0.5412835 	 16.5000313 	 1250.7199 	 1.088 	 94.965
0.5430647 	 16.7203025 	 1277.6703 	 1.088 	 94.944
0.5448262 	 16.9386232 	 1297.2082 	 1.087 	 94.918
0.5465704 	 17.1589321 	 1318.5013 	 1.087 	 94.915
0.5482977 	 17.3772892 	 1346.2702 	 1.086 	 94.918
0.5500054 	 17.6001617 	 1369.7218 	 1.085 	 94.886
0.5516961 	 17.8266250 	 1412.0809 	 1.085 	 94.903
0.5533697 	 18.0534584 	 1459.1504 	 1.085 	 94.894
0.5550255 	 18.2794240 	 1522.3836 	 1.084 	 94.877
0.5566647 	 18.5082375 	 1583.3882 	 1.083 	 94.882
0.5582863 	 18.7373253 	 1680.5961 	 1.082 	 94.901
0.5598927 	 18.9733966 	 1771.0023 	 1.082 	 94.885
0.5614823 	 19.2114141 	 1913.4768 	 1.081 	 94.882
0.5630563 	 19.4460951 	 2101.7701 	 1.080 	 94.872
0.5646141 	 19.6862291 	 2378.9747 	 1.080 	 94.855
0.5661555 	 19.9309618 	 2720.4362 	 1.079 	 94.861
0.5676819 	 20.1735621 	 3201.1143 	 1.079 	 94.874
0.5691941 	 20.4197759 	 3888.1547 	 1.078 	 94.846
0.5706906 	 20.6775017 	 4858.4407 	 1.077 	 94.855
0.5721702 	 20.9402133 	 6122.4117 	 1.076 	 94.867
0.5736337 	 21.2010560 	 7769.9096 	 1.076 	 94.821
0.5750812 	 21.4836217 	 9786.5488 	 1.075 	 94.838
0.5765140 	 21.7612317 	 12561.3514 	 1.075 	 94.792
0.5779298 	 22.0514325 	 15819.5155 	 1.074 	 94.780
0.5793294 	 22.3506706 	 19362.9542 	 1.073 	 94.754
0.5807150 	 22.6687684 	 23884.7082 	 1.073 	 94.813
0.5820817 	 22.9902593 	 28660.3120 	 1.073 	 94.769
0.5834304 	 23.3310971 	 33224.5153 	 1.073 	 94.772
0.5847614 	 23.6778653 	 38542.4207 	 1.074 	 94.769
0.5860753 	 24.0354072 	 43731.0577 	 1.076 	 94.755
0.5873711 	 24.4053843 	 48127.4019 	 1.077 	 94.750
0.5886499 	 24.7834339 	 53191.5967 	 1.079 	 94.731
0.5899104 	 25.1724644 	 56024.8754 	 1.081 	 94.731
0.5911541 	 25.5741461 	 58419.9834 	 1.084 	 94.705
0.5923793 	 25.9807398 	 60479.3026 	 1.088 	 94.683
0.5935857 	 26.3919556 	 62899.8321 	 1.093 	 94.655
0.5947762 	 26.8147159 	 63533.5851 	 1.098 	 94.661
0.5959499 	 27.2395092 	 64401.6575 	 1.105 	 94.646
0.5971065 	 27.6688199 	 65555.5925 	 1.111 	 94.582
0.5982472 	 28.1209543 	 66998.6631 	 1.118 	 94.581
0.5993711 	 28.5599997 	 70495.1891 	 1.126 	 94.540
0.6004784 	 29.0170441 	 75482.7678 	 1.134 	 94.518
0.6015696 	 29.4778677 	 81981.0101 	 1.143 	 94.449
0.6026444 	 29.9544136 	 89083.4359 	 1.152 	 94.454
0.6037039 	 30.4360608 	 97897.1465 	 1.160 	 94.385
0.6047475 	 30.9455743 	 108078.1270 	 1.169 	 94.349
0.6057746 	 31.4611813 	 118607.1800 	 1.176 	 94.323
0.6067874 	 31.9994305 	 129418.5918 	 1.184 	 94.265
0.6077835 	 32.5573923 	 141168.6652 	 1.191 	 94.253
0.6087634 	 33.1308122 	 151154.0297 	 1.197 	 94.230
0.6097270 	 33.7175997 	 161200.1552 	 1.201 	 94.189
0.6106748 	 34.3313921 	 171497.6482 	 1.206 	 94.183
0.6116065 	 34.9437569 	 182796.3690 	 1.209 	 94.151
0.6125225 	 35.5890219 	 193414.1956 	 1.212 	 94.129
0.6134235 	 36.2508868 	 205284.3033 	 1.216 	 94.129
0.6143086 	 36.9108358 	 217381.1430 	 1.218 	 94.099
0.6151787 	 37.5844807 	 230124.7217 	 1.219 	 94.049
0.6160331 	 38.2862179 	 241976.4406 	 1.221 	 94.069
0.6168732 	 38.9977717 	 256425.7035 	 1.221 	 94.036
0.6176989 	 39.7240315 	 272283.1141 	 1.222 	 94.063
0.6185096 	 40.4635236 	 290341.4381 	 1.222 	 94.017
0.6193069 	 41.2163712 	 310873.3470 	 1.222 	 94.037
0.6200899 	 41.9730031 	 328259.5921 	 1.222 	 94.013
0.6208589 	 42.7658320 	 348507.3280 	 1.224 	 94.032
0.6216149 	 43.5640884 	 367799.6674 	 1.224 	 94.027
0.6223575 	 44.3754634 	 388824.3136 	 1.226 	 94.010
0.6230871 	 45.2033125 	 405207.2081 	 1.228 	 94.002
0.6238031 	 46.0500944 	 422173.2053 	 1.228 	 94.003
0.6245067 	 46.9374074 	 440095.0888 	 1.229 	 94.017
0.6251977 	 47.8394022 	 461663.7000 	 1.232 	 94.033
0.6258764 	 48.7348770 	 475140.5479 	 1.233 	 93.983
0.6265427 	 49.6681797 	 493867.2516 	 1.236 	 93.999
0.6271972 	 50.6411473 	 513899.7170 	 1.238 	 94.032
0.6278391 	 51.5963693 	 532743.2390 	 1.240 	 93.994
0.6284697 	 52.5964811 	 549731.9789 	 1.243 	 93.968
0.6290886 	 53.6301181 	 564396.5658 	 1.245 	 93.976
0.6296960 	 54.6727683 	 580034.4892 	 1.247 	 93.957
