N=100 	 R=1000000 	 s=1 	 Save [density, Z, rho_t, like/unlike, events per sweep]
0.0001349 	 1.0005138 	 1.1027 	 1.008 	 10.125
0.0132559 	 1.1624799 	 12.1746 	 0.951 	 46.821
0.0260817 	 1.1528297 	 22.7661 	 1.004 	 78.908
0.0384934 	 1.1917984 	 33.2284 	 1.012 	 88.243
0.0505065 	 1.2394328 	 43.8546 	 1.016 	 92.003
0.0621550 	 1.2921298 	 54.4311 	 1.018 	 93.787
0.0734638 	 1.3482085 	 64.9417 	 1.019 	 94.766
0.0844209 	 1.4076121 	 75.4293 	 1.020 	 95.246
0.0950612 	 1.4694711 	 85.9104 	 1.021 	 95.540
0.1054029 	 1.5336797 	 97.0669 	 1.023 	 95.656
0.1154476 	 1.6001357 	 107.6390 	 1.023 	 95.733
0.1252189 	 1.6682351 	 117.9603 	 1.025 	 95.753
0.1347100 	 1.7386315 	 128.0680 	 1.026 	 95.817
0.1439456 	 1.8101164 	 137.9887 	 1.027 	 95.906
0.1529359 	 1.8840920 	 147.5450 	 1.029 	 95.847
0.1616913 	 1.9596573 	 157.5258 	 1.030 	 95.807
0.1702156 	 2.0365650 	 167.9687 	 1.032 	 95.783
0.1785300 	 2.1156718 	 177.6621 	 1.032 	 95.793
0.1866361 	 2.1961810 	 187.4217 	 1.033 	 95.765
0.1945415 	 2.2779721 	 199.0740 	 1.035 	 95.742
0.2022548 	 2.3618842 	 209.0637 	 1.036 	 95.745
0.2097803 	 2.4467721 	 218.7326 	 1.037 	 95.700
0.2171245 	 2.5344886 	 231.1325 	 1.038 	 95.695
0.2242943 	 2.6225774 	 241.8804 	 1.040 	 95.706
0.2312999 	 2.7122063 	 249.8797 	 1.041 	 95.657
0.2381490 	 2.8034228 	 260.8306 	 1.042 	 95.620
0.2448412 	 2.8968564 	 272.8550 	 1.043 	 95.631
0.2513845 	 2.9911283 	 283.7150 	 1.044 	 95.606
0.2577844 	 3.0882374 	 292.5268 	 1.045 	 95.615
0.2640470 	 3.1859731 	 301.0213 	 1.047 	 95.614
0.2701763 	 3.2853456 	 309.2971 	 1.048 	 95.594
0.2761800 	 3.3856577 	 321.1362 	 1.049 	 95.538
0.2820607 	 3.4881391 	 336.0256 	 1.050 	 95.558
0.2878173 	 3.5923215 	 344.3334 	 1.051 	 95.550
0.2934573 	 3.6980813 	 358.1271 	 1.052 	 95.534
0.2989803 	 3.8052419 	 368.7544 	 1.053 	 95.550
0.3043973 	 3.9138216 	 377.7932 	 1.054 	 95.527
0.3097053 	 4.0231473 	 389.1172 	 1.055 	 95.510
0.3149095 	 4.1346255 	 400.4180 	 1.056 	 95.467
0.3200166 	 4.2477742 	 415.2023 	 1.057 	 95.467
0.3250189 	 4.3616718 	 427.3170 	 1.058 	 95.458
0.3299315 	 4.4770659 	 438.3779 	 1.059 	 95.440
0.3347515 	 4.5948279 	 448.2115 	 1.060 	 95.444
0.3394822 	 4.7127164 	 459.5830 	 1.061 	 95.376
0.3441245 	 4.8340004 	 471.8569 	 1.061 	 95.424
0.3486889 	 4.9550661 	 481.8646 	 1.062 	 95.376
0.3531703 	 5.0789435 	 497.7274 	 1.063 	 95.409
0.3575728 	 5.2050007 	 509.3671 	 1.064 	 95.387
0.3618976 	 5.3290027 	 518.7137 	 1.065 	 95.376
0.3661481 	 5.4569157 	 530.1214 	 1.065 	 95.345
0.3703250 	 5.5853858 	 539.8855 	 1.067 	 95.336
0.3744307 	 5.7162903 	 552.5247 	 1.067 	 95.333
0.3784678 	 5.8492290 	 559.9554 	 1.069 	 95.336
0.3824388 	 5.9810649 	 574.6859 	 1.069 	 95.324
0.3863438 	 6.1153750 	 588.7138 	 1.070 	 95.297
0.3901887 	 6.2542624 	 596.8284 	 1.070 	 95.326
0.3939706 	 6.3919580 	 607.2635 	 1.071 	 95.315
0.3976870 	 6.5290572 	 613.9295 	 1.072 	 95.276
0.4013469 	 6.6703834 	 616.9039 	 1.073 	 95.286
0.4049493 	 6.8126512 	 631.9981 	 1.073 	 95.287
0.4084984 	 6.9554087 	 636.1282 	 1.074 	 95.262
0.4119899 	 7.1001657 	 648.4312 	 1.075 	 95.270
0.4154281 	 7.2449826 	 658.1668 	 1.075 	 95.248
0.4188120 	 7.3939257 	 669.5177 	 1.076 	 95.252
0.4221498 	 7.5423364 	 682.0072 	 1.076 	 95.236
0.4254336 	 7.6914498 	 694.2251 	 1.076 	 95.213
0.4286713 	 7.8414380 	 709.1204 	 1.077 	 95.203
0.4318616 	 7.9957664 	 718.8871 	 1.078 	 95.192
0.4350040 	 8.1481066 	 728.9499 	 1.078 	 95.192
0.4381031 	 8.3054510 	 740.0545 	 1.079 	 95.197
0.4411577 	 8.4622433 	 746.7838 	 1.079 	 95.183
0.4441691 	 8.6194780 	 757.6356 	 1.080 	 95.201
0.4471367 	 8.7794470 	 763.1801 	 1.081 	 95.168
0.4500630 	 8.9415663 	 774.8128 	 1.081 	 95.158
0.4529499 	 9.1047532 	 785.0915 	 1.081 	 95.172
0.4557982 	 9.2664934 	 797.7286 	 1.081 	 95.148
0.4586051 	 9.4324478 	 812.7941 	 1.081 	 95.150
0.4613779 	 9.5968002 	 819.4698 	 1.082 	 95.120
0.4641110 	 9.7668137 	 829.9340 	 1.083 	 95.145
0.4668095 	 9.9348387 	 839.7174 	 1.083 	 95.129
0.4694714 	 10.1031218 	 844.1270 	 1.083 	 95.122
0.4721026 	 10.2774408 	 852.0754 	 1.084 	 95.114
0.4746946 	 10.4484956 	 869.8018 	 1.084 	 95.121
0.4772541 	 10.6227536 	 874.1901 	 1.085 	 95.099
0.4797811 	 10.8001287 	 888.1049 	 1.085 	 95.109
0.4822751 	 10.9765038 	 901.7604 	 1.086 	 95.085
0.4847385 	 11.1566482 	 903.1962 	 1.085 	 95.113
0.4871730 	 11.3341393 	 912.5145 	 1.085 	 95.085
0.4895744 	 11.5174020 	 931.8727 	 1.086 	 95.114
0.4919479 	 11.6970821 	 947.4252 	 1.086 	 95.053
0.4942894 	 11.8815595 	 959.4995 	 1.086 	 95.058
0.4966040 	 12.0707846 	 970.7785 	 1.087 	 95.065
0.4988915 	 12.2572829 	 986.4746 	 1.087 	 95.046
0.5011509 	 12.4448049 	 998.6477 	 1.087 	 95.057
0.5033844 	 12.6334624 	 1006.0885 	 1.087 	 95.058
0.5055888 	 12.8287965 	 1013.9835 	 1.088 	 95.049
0.5077693 	 13.0197977 	 1019.7933 	 1.088 	 95.039
0.5099239 	 13.2125383 	 1025.3782 	 1.088 	 95.024
0.5120532 	 13.4070345 	 1036.9030 	 1.088 	 95.030
0.5141585 	 13.6019886 	 1057.6842 	 1.088 	 95.008
0.5162386 	 13.7941011 	 1075.2676 	 1.089 	 94.997
0.5182973 	 13.9974799 	 1086.2469 	 1.089 	 95.016
0.5203333 	 14.1975594 	 1104.0019 	 1.089 	 94.992
0.5223434 	 14.3985808 	 1118.5449 	 1.088 	 95.009
0.5243315 	 14.5988926 	 1129.4134 	 1.088 	 94.969
0.5262983 	 14.8049001 	 1148.2345 	 1.088 	 94.970
0.5282422 	 15.0131857 	 1156.0798 	 1.088 	 94.961
0.5301656 	 15.2221571 	 1172.1484 	 1.088 	 94.975
0.5320659 	 15.4332472 	 1177.9920 	 1.088 	 94.969
0.5339468 	 15.6439505 	 1191.8664 	 1.089 	 94.979
0.5358071 	 15.8527743 	 1209.4688 	 1.089 	 94.944
0.5376461 	 16.0662748 	 1227.5242 	 1.089 	 94.978
0.5394669 	 16.2782553 	 1243.8008 	 1.087 	 94.922
0.5412685 	 16.4993550 	 1260.8043 	 1.087 	 94.966
0.5430497 	 16.7153434 	 1271.6559 	 1.088 	 94.946
0.5448131 	 16.9324392 	 1302.6569 	 1.087 	 94.933
0.5465568 	 17.1516471 	 1332.2813 	 1.086 	 94.914
0.5482844 	 17.3792090 	 1370.0533 	 1.087 	 94.916
0.5499920 	 17.6054987 	 1400.9922 	 1.087 	 94.909
0.5516814 	 17.8303977 	 1437.7521 	 1.087 	 94.903
0.5533545 	 18.0620002 	 1481.0088 	 1.087 	 94.896
0.5550087 	 18.2885023 	 1518.4597 	 1.086 	 94.911
0.5566481 	 18.5180653 	 1596.4074 	 1.087 	 94.896
0.5582692 	 18.7502435 	 1677.9623 	 1.086 	 94.881
0.5598748 	 18.9878269 	 1779.0963 	 1.086 	 94.879
0.5614634 	 19.2234975 	 1901.2386 	 1.086 	 94.870
0.5630365 	 19.4633823 	 2046.4166 	 1.086 	 94.867
0.5645928 	 19.7059609 	 2253.9821 	 1.086 	 94.868
0.5661330 	 19.9549769 	 2511.4342 	 1.085 	 94.872
0.5676581 	 20.1988029 	 2827.7500 	 1.086 	 94.835
0.5691657 	 20.4643882 	 3207.7982 	 1.086 	 94.858
0.5706573 	 20.7230232 	 3607.2162 	 1.086 	 94.854
0.5721328 	 21.0049568 	 4086.6715 	 1.087 	 94.878
0.5735929 	 21.2678671 	 4560.7393 	 1.087 	 94.832
0.5750371 	 21.5466545 	 5236.9311 	 1.087 	 94.816
0.5764646 	 21.8363381 	 6072.2940 	 1.088 	 94.815
0.5778752 	 22.1219609 	 7035.0705 	 1.088 	 94.805
0.5792703 	 22.4290140 	 8184.7038 	 1.088 	 94.832
0.5806489 	 22.7345068 	 9656.8434 	 1.089 	 94.849
0.5820115 	 23.0391120 	 11315.7493 	 1.089 	 94.823
0.5833583 	 23.3561930 	 13261.4213 	 1.088 	 94.818
0.5846898 	 23.6816567 	 15717.1031 	 1.087 	 94.822
0.5860040 	 24.0151040 	 18692.0538 	 1.087 	 94.812
0.5873023 	 24.3554217 	 22368.2316 	 1.087 	 94.827
0.5885840 	 24.7022467 	 26702.2889 	 1.086 	 94.836
0.5898492 	 25.0546827 	 32220.3318 	 1.085 	 94.826
0.5911000 	 25.4159539 	 38603.7841 	 1.083 	 94.838
0.5923334 	 25.7848665 	 45863.5372 	 1.082 	 94.838
0.5935505 	 26.1611413 	 54224.8231 	 1.081 	 94.836
0.5947513 	 26.5533133 	 63869.1707 	 1.081 	 94.829
0.5959371 	 26.9592032 	 75013.3693 	 1.080 	 94.873
0.5971063 	 27.3750262 	 87784.0736 	 1.079 	 94.865
0.5982583 	 27.7950943 	 103379.4650 	 1.079 	 94.851
0.5993955 	 28.2433046 	 120036.5971 	 1.079 	 94.869
0.6005157 	 28.6971781 	 139385.3929 	 1.078 	 94.857
0.6016204 	 29.1616907 	 161672.6887 	 1.078 	 94.865
0.6027080 	 29.6511323 	 185147.7002 	 1.080 	 94.854
0.6037785 	 30.1416229 	 214056.2345 	 1.080 	 94.832
0.6048329 	 30.6588060 	 242129.7377 	 1.081 	 94.848
0.6058709 	 31.1892945 	 271855.0754 	 1.083 	 94.846
0.6068925 	 31.7366624 	 305852.5079 	 1.084 	 94.864
0.6078974 	 32.2938764 	 338653.6483 	 1.087 	 94.824
0.6088861 	 32.8767340 	 372442.6484 	 1.089 	 94.817
0.6098580 	 33.4606305 	 406082.5545 	 1.089 	 94.824
0.6108132 	 34.0713762 	 440477.4857 	 1.090 	 94.816
0.6117525 	 34.6962431 	 472293.5749 	 1.093 	 94.790
0.6126753 	 35.3308630 	 501986.3669 	 1.094 	 94.780
0.6135828 	 36.0000119 	 532010.7535 	 1.096 	 94.766
0.6144742 	 36.6615460 	 558675.1706 	 1.097 	 94.745
0.6153504 	 37.3526137 	 585692.5905 	 1.099 	 94.715
0.6162112 	 38.0685826 	 608258.3097 	 1.099 	 94.740
0.6170564 	 38.7960531 	 625184.0358 	 1.100 	 94.733
0.6178865 	 39.5316886 	 641903.2934 	 1.101 	 94.725
0.6187014 	 40.3083340 	 652886.7849 	 1.101 	 94.723
0.6195012 	 41.0644927 	 664202.7581 	 1.101 	 94.679
0.6202873 	 41.8726497 	 677489.7696 	 1.102 	 94.693
0.6210590 	 42.6608637 	 679682.1530 	 1.101 	 94.660
0.6218168 	 43.4848806 	 682098.5268 	 1.101 	 94.656
0.6225607 	 44.3411542 	 680726.9779 	 1.100 	 94.706
0.6232904 	 45.1913184 	 677960.2538 	 1.098 	 94.674
0.6240069 	 46.0493351 	 670669.0366 	 1.097 	 94.617
0.6247112 	 46.9469560 	 658980.4126 	 1.094 	 94.661
0.6254025 	 47.8216571 	 641215.3551 	 1.090 	 94.620
0.6260816 	 48.7407207 	 623406.6847 	 1.086 	 94.642
0.6267482 	 49.6492670 	 603820.0681 	 1.080 	 94.668
0.6274033 	 50.5556560 	 573804.0430 	 1.072 	 94.672
0.6280472 	 51.4913105 	 545435.2553 	 1.064 	 94.708
0.6286793 	 52.4311204 	 522408.3964 	 1.055 	 94.743
0.6293011 	 53.3419176 	 497340.3356 	 1.043 	 94.764
0.6299124 	 54.3027646 	 478640.8198 	 1.031 	 94.823
