N=100 	 R=1000000 	 s=1 	 Save [density, Z, rho_t, like/unlike, events per sweep]
0.0001344 	 1.0005131 	 1.1026 	 1.012 	 10.125
0.0132632 	 1.1626650 	 12.1556 	 0.949 	 46.823
0.0260765 	 1.1527845 	 22.7035 	 1.005 	 78.906
0.0384973 	 1.1917955 	 33.1132 	 1.013 	 88.247
0.0505216 	 1.2395754 	 43.6360 	 1.016 	 92.000
0.0621742 	 1.2921262 	 54.1512 	 1.017 	 93.787
0.0734688 	 1.3483023 	 64.6829 	 1.019 	 94.799
0.0844228 	 1.4075413 	 75.3387 	 1.019 	 95.248
0.0950655 	 1.4693637 	 86.2722 	 1.021 	 95.499
0.1053995 	 1.5336311 	 96.7079 	 1.023 	 95.640
0.1154507 	 1.6002572 	 107.5761 	 1.023 	 95.777
0.1252072 	 1.6686575 	 118.3882 	 1.025 	 95.818
0.1347052 	 1.7386397 	 129.4973 	 1.026 	 95.807
0.1439474 	 1.8100934 	 139.5782 	 1.028 	 95.858
0.1529375 	 1.8839731 	 151.5281 	 1.028 	 95.842
0.1616912 	 1.9597563 	 161.0267 	 1.030 	 95.825
0.1702204 	 2.0368325 	 171.4133 	 1.031 	 95.794
0.1785370 	 2.1157201 	 182.4241 	 1.032 	 95.790
0.1866371 	 2.1962691 	 192.9568 	 1.034 	 95.781
0.1945425 	 2.2783763 	 205.4147 	 1.035 	 95.740
0.2022526 	 2.3618449 	 215.3413 	 1.036 	 95.725
0.2097736 	 2.4475395 	 225.6471 	 1.038 	 95.724
0.2171237 	 2.5340163 	 235.0239 	 1.038 	 95.686
0.2243007 	 2.6229918 	 245.9077 	 1.040 	 95.710
0.2313095 	 2.7125558 	 254.6226 	 1.041 	 95.688
0.2381596 	 2.8040598 	 265.2302 	 1.042 	 95.648
0.2448546 	 2.8968358 	 276.3958 	 1.043 	 95.629
0.2514022 	 2.9918446 	 287.2188 	 1.044 	 95.617
0.2578040 	 3.0884002 	 295.0351 	 1.045 	 95.616
0.2640661 	 3.1859691 	 304.5458 	 1.047 	 95.572
0.2701984 	 3.2853239 	 315.2710 	 1.047 	 95.577
0.2762010 	 3.3861761 	 325.9306 	 1.049 	 95.559
0.2820777 	 3.4887380 	 334.2602 	 1.050 	 95.569
0.2878309 	 3.5924621 	 344.4697 	 1.051 	 95.532
0.2934665 	 3.6976442 	 357.6999 	 1.052 	 95.538
0.2989903 	 3.8051584 	 368.9891 	 1.053 	 95.526
0.3044056 	 3.9133494 	 379.8379 	 1.054 	 95.510
0.3097168 	 4.0228590 	 389.3580 	 1.055 	 95.489
0.3149185 	 4.1347387 	 399.7092 	 1.057 	 95.479
0.3200197 	 4.2478360 	 408.2850 	 1.056 	 95.482
0.3250252 	 4.3610155 	 415.2618 	 1.058 	 95.431
0.3299350 	 4.4774214 	 425.7377 	 1.059 	 95.428
0.3347558 	 4.5946552 	 431.8962 	 1.060 	 95.412
0.3394917 	 4.7140231 	 442.5478 	 1.060 	 95.426
0.3441373 	 4.8343912 	 455.1602 	 1.061 	 95.423
0.3486999 	 4.9565351 	 467.1545 	 1.062 	 95.432
0.3531803 	 5.0796925 	 476.8684 	 1.063 	 95.407
0.3575809 	 5.2042491 	 488.9699 	 1.064 	 95.370
0.3619055 	 5.3305951 	 498.6548 	 1.065 	 95.379
0.3661585 	 5.4579910 	 516.7666 	 1.066 	 95.333
0.3703347 	 5.5866521 	 525.8442 	 1.066 	 95.337
0.3744399 	 5.7159173 	 534.0729 	 1.068 	 95.325
0.3784784 	 5.8491253 	 543.0353 	 1.068 	 95.344
0.3824504 	 5.9820844 	 554.8675 	 1.069 	 95.317
0.3863554 	 6.1168757 	 562.2695 	 1.070 	 95.303
0.3901976 	 6.2521927 	 568.6012 	 1.070 	 95.279
0.3939781 	 6.3920909 	 578.1648 	 1.071 	 95.306
0.3976948 	 6.5304937 	 585.1448 	 1.072 	 95.298
0.4013555 	 6.6712123 	 596.1372 	 1.073 	 95.284
0.4049543 	 6.8114290 	 608.4809 	 1.072 	 95.250
0.4085021 	 6.9549615 	 618.4281 	 1.074 	 95.245
0.4119944 	 7.0986267 	 627.0895 	 1.074 	 95.262
0.4154327 	 7.2452732 	 636.5787 	 1.074 	 95.247
0.4188192 	 7.3906668 	 647.8021 	 1.075 	 95.213
0.4221525 	 7.5405031 	 663.1277 	 1.076 	 95.215
0.4254394 	 7.6908707 	 671.9865 	 1.077 	 95.212
0.4286772 	 7.8417737 	 682.1994 	 1.077 	 95.196
0.4318665 	 7.9945135 	 689.0285 	 1.078 	 95.191
0.4350098 	 8.1494584 	 693.7461 	 1.078 	 95.218
0.4381093 	 8.3049027 	 704.9941 	 1.078 	 95.198
0.4411611 	 8.4620100 	 714.7192 	 1.079 	 95.184
0.4441706 	 8.6210571 	 726.7444 	 1.080 	 95.187
0.4471373 	 8.7825914 	 740.3871 	 1.080 	 95.197
0.4500646 	 8.9416946 	 746.7177 	 1.080 	 95.191
0.4529517 	 9.1011846 	 763.9943 	 1.081 	 95.156
0.4558002 	 9.2672409 	 772.5235 	 1.082 	 95.161
0.4586085 	 9.4316919 	 778.2165 	 1.082 	 95.120
0.4613779 	 9.5984702 	 785.0394 	 1.082 	 95.163
0.4641100 	 9.7644231 	 794.7272 	 1.083 	 95.119
0.4668096 	 9.9335497 	 808.0390 	 1.084 	 95.095
0.4694728 	 10.1024383 	 815.2905 	 1.084 	 95.111
0.4721020 	 10.2788795 	 827.0411 	 1.084 	 95.131
0.4746961 	 10.4498677 	 834.4141 	 1.084 	 95.100
0.4772551 	 10.6245653 	 845.1432 	 1.084 	 95.074
0.4797809 	 10.7982133 	 860.7772 	 1.084 	 95.096
0.4822750 	 10.9759361 	 877.7222 	 1.084 	 95.088
0.4847392 	 11.1515160 	 885.9851 	 1.084 	 95.044
0.4871719 	 11.3367440 	 896.8429 	 1.085 	 95.062
0.4895745 	 11.5183884 	 905.3028 	 1.086 	 95.080
0.4919490 	 11.6986482 	 917.7909 	 1.086 	 95.070
0.4942925 	 11.8795699 	 926.6210 	 1.086 	 95.051
0.4966081 	 12.0687504 	 933.8742 	 1.087 	 95.056
0.4988963 	 12.2583359 	 947.6520 	 1.086 	 95.061
0.5011568 	 12.4424594 	 962.8560 	 1.087 	 95.038
0.5033897 	 12.6325141 	 975.7104 	 1.087 	 95.058
0.5055946 	 12.8228571 	 981.7831 	 1.087 	 95.029
0.5077760 	 13.0152297 	 993.4692 	 1.088 	 95.038
0.5099307 	 13.2085869 	 1005.0590 	 1.087 	 95.014
0.5120611 	 13.4027305 	 1016.7066 	 1.089 	 95.030
0.5141672 	 13.5994829 	 1035.4302 	 1.088 	 95.017
0.5162470 	 13.7983279 	 1051.2987 	 1.088 	 94.997
0.5183026 	 13.9997409 	 1061.7224 	 1.089 	 95.022
0.5203349 	 14.2005340 	 1071.6640 	 1.089 	 95.007
0.5223445 	 14.3971016 	 1088.1659 	 1.089 	 94.997
0.5243325 	 14.6006641 	 1095.0956 	 1.088 	 94.975
0.5262995 	 14.8060193 	 1107.3109 	 1.087 	 94.967
0.5282442 	 15.0111036 	 1125.0081 	 1.088 	 94.940
0.5301680 	 15.2210741 	 1143.4054 	 1.088 	 94.972
0.5320695 	 15.4352904 	 1158.9859 	 1.088 	 94.972
0.5339510 	 15.6336239 	 1168.6069 	 1.087 	 94.939
0.5358120 	 15.8513759 	 1184.0765 	 1.087 	 94.959
0.5376537 	 16.0626571 	 1210.8019 	 1.087 	 94.959
0.5394737 	 16.2822935 	 1227.6056 	 1.088 	 94.969
0.5412765 	 16.5017474 	 1254.1470 	 1.087 	 94.959
0.5430603 	 16.7187837 	 1270.4867 	 1.087 	 94.950
0.5448234 	 16.9383192 	 1300.2153 	 1.087 	 94.953
0.5465667 	 17.1589406 	 1318.7792 	 1.086 	 94.943
0.5482933 	 17.3798472 	 1346.1056 	 1.086 	 94.906
0.5500008 	 17.5999390 	 1382.2128 	 1.087 	 94.895
0.5516893 	 17.8309446 	 1414.2316 	 1.087 	 94.925
0.5533623 	 18.0593588 	 1447.4154 	 1.085 	 94.905
0.5550179 	 18.2908979 	 1496.6116 	 1.086 	 94.903
0.5566570 	 18.5194128 	 1564.8408 	 1.086 	 94.900
0.5582790 	 18.7497702 	 1645.6768 	 1.086 	 94.871
0.5598840 	 18.9858331 	 1746.7027 	 1.085 	 94.893
0.5614724 	 19.2231046 	 1858.5172 	 1.084 	 94.869
0.5630447 	 19.4608679 	 1996.6959 	 1.084 	 94.857
0.5646005 	 19.7055403 	 2225.9554 	 1.082 	 94.893
0.5661414 	 19.9454861 	 2468.0962 	 1.082 	 94.860
0.5676663 	 20.1951593 	 2817.4683 	 1.080 	 94.852
0.5691755 	 20.4445719 	 3283.8804 	 1.080 	 94.847
0.5706693 	 20.6943219 	 3923.5471 	 1.079 	 94.836
0.5721477 	 20.9598423 	 4759.4835 	 1.078 	 94.843
0.5736092 	 21.2226845 	 5893.5575 	 1.076 	 94.807
0.5750568 	 21.4997645 	 7307.7973 	 1.074 	 94.803
0.5764874 	 21.7760785 	 9139.9276 	 1.073 	 94.768
0.5779018 	 22.0703882 	 11485.7077 	 1.071 	 94.784
0.5793017 	 22.3646469 	 14618.9331 	 1.068 	 94.757
0.5806841 	 22.6692471 	 18187.1322 	 1.066 	 94.739
0.5820495 	 22.9854495 	 22799.2379 	 1.063 	 94.704
0.5833976 	 23.3203794 	 27637.0683 	 1.060 	 94.719
0.5847294 	 23.6534444 	 34416.3115 	 1.056 	 94.705
0.5860451 	 24.0002643 	 43061.9451 	 1.051 	 94.698
0.5873433 	 24.3532040 	 53474.8749 	 1.046 	 94.688
0.5886263 	 24.7156193 	 65142.2069 	 1.042 	 94.654
0.5898899 	 25.0866775 	 81021.6359 	 1.036 	 94.650
0.5911380 	 25.4536223 	 99652.8163 	 1.031 	 94.643
0.5923690 	 25.8442537 	 120448.6225 	 1.025 	 94.638
0.5935835 	 26.2345722 	 146851.4652 	 1.019 	 94.642
0.5947806 	 26.6371473 	 177288.8657 	 1.013 	 94.614
0.5959622 	 27.0373305 	 210328.6863 	 1.007 	 94.610
0.5971279 	 27.4542741 	 245817.8167 	 1.001 	 94.585
0.5982766 	 27.8812777 	 284451.7961 	 0.997 	 94.613
0.5994101 	 28.3114403 	 326114.7355 	 0.992 	 94.609
0.6005279 	 28.7526143 	 372683.3942 	 0.988 	 94.596
0.6016299 	 29.2068806 	 421054.2923 	 0.985 	 94.599
0.6027149 	 29.6775222 	 466414.9567 	 0.981 	 94.608
0.6037854 	 30.1534789 	 510930.7221 	 0.980 	 94.593
0.6048397 	 30.6501265 	 551027.5938 	 0.979 	 94.590
0.6058781 	 31.1595648 	 590374.4883 	 0.978 	 94.587
0.6068997 	 31.6833273 	 625868.0694 	 0.978 	 94.594
0.6079068 	 32.2283315 	 658076.8689 	 0.979 	 94.566
0.6088976 	 32.7763629 	 693240.9128 	 0.979 	 94.583
0.6098728 	 33.3481605 	 719450.2976 	 0.981 	 94.587
0.6108320 	 33.9391659 	 740125.8429 	 0.983 	 94.565
0.6117757 	 34.5383011 	 757831.5979 	 0.984 	 94.570
0.6127039 	 35.1614701 	 777408.3055 	 0.987 	 94.561
0.6136160 	 35.7989157 	 792832.1470 	 0.988 	 94.582
0.6145126 	 36.4507202 	 803959.1204 	 0.991 	 94.539
0.6153937 	 37.1095115 	 811643.7064 	 0.993 	 94.530
0.6162602 	 37.8125008 	 816719.7809 	 0.996 	 94.539
0.6171120 	 38.5076592 	 821012.0651 	 0.998 	 94.547
0.6179487 	 39.2235390 	 819442.1714 	 1.000 	 94.512
0.6187707 	 39.9533497 	 817168.1602 	 1.002 	 94.517
0.6195785 	 40.6954550 	 807450.1436 	 1.004 	 94.497
0.6203724 	 41.4574113 	 796005.6302 	 1.006 	 94.527
0.6211528 	 42.2129484 	 778657.3070 	 1.008 	 94.473
0.6219191 	 42.9745735 	 754205.2449 	 1.009 	 94.497
0.6226723 	 43.7506973 	 723088.2290 	 1.010 	 94.479
0.6234131 	 44.5157855 	 681572.3523 	 1.011 	 94.522
0.6241419 	 45.2805671 	 636552.6628 	 1.010 	 94.519
0.6248587 	 46.0664145 	 591405.3252 	 1.010 	 94.533
0.6255649 	 46.7996572 	 544720.8191 	 1.008 	 94.497
0.6262605 	 47.5557225 	 506500.3067 	 1.007 	 94.539
0.6269452 	 48.2996855 	 478525.3062 	 1.004 	 94.587
0.6276206 	 49.0334313 	 469075.1939 	 1.001 	 94.567
0.6282859 	 49.7793624 	 480849.4868 	 0.997 	 94.576
0.6289416 	 50.5398873 	 511970.5750 	 0.993 	 94.652
0.6295880 	 51.3115513 	 561447.1574 	 0.988 	 94.722
