N=100 	 R=1000000 	 s=1 	 Save [density, Z, rho_t, like/unlike, events per sweep]
0.0001342 	 1.0005114 	 1.1027 	 1.005 	 10.125
0.0132542 	 1.1626340 	 12.2418 	 0.950 	 46.808
0.0260809 	 1.1528257 	 23.0151 	 1.004 	 78.892
0.0385064 	 1.1918427 	 33.4584 	 1.014 	 88.264
0.0505214 	 1.2396332 	 44.0555 	 1.015 	 92.013
0.0621679 	 1.2921487 	 54.3525 	 1.017 	 93.794
0.0734712 	 1.3482690 	 64.7426 	 1.019 	 94.758
0.0844338 	 1.4076537 	 74.4567 	 1.020 	 95.244
0.0950706 	 1.4695289 	 84.3540 	 1.021 	 95.491
0.1054110 	 1.5337307 	 95.3077 	 1.022 	 95.660
0.1154518 	 1.6000943 	 105.4701 	 1.023 	 95.753
0.1252167 	 1.6683234 	 116.7674 	 1.024 	 95.779
0.1347094 	 1.7384415 	 127.5133 	 1.026 	 95.785
0.1439462 	 1.8100669 	 137.0867 	 1.027 	 95.864
0.1529333 	 1.8839668 	 147.9783 	 1.029 	 95.844
0.1616869 	 1.9596926 	 158.0339 	 1.030 	 95.843
0.1702149 	 2.0366699 	 168.1869 	 1.031 	 95.810
0.1785286 	 2.1155976 	 177.8592 	 1.032 	 95.777
0.1866338 	 2.1963366 	 186.4823 	 1.033 	 95.786
0.1945394 	 2.2781973 	 198.2725 	 1.035 	 95.752
0.2022459 	 2.3619325 	 208.8196 	 1.036 	 95.748
0.2097658 	 2.4472314 	 219.5199 	 1.038 	 95.708
0.2171100 	 2.5339494 	 230.4344 	 1.038 	 95.712
0.2242887 	 2.6225156 	 241.6333 	 1.040 	 95.690
0.2312991 	 2.7124138 	 251.6628 	 1.041 	 95.679
0.2381461 	 2.8036304 	 263.5113 	 1.041 	 95.628
0.2448439 	 2.8971935 	 274.5214 	 1.043 	 95.611
0.2513910 	 2.9920190 	 285.4726 	 1.044 	 95.626
0.2577908 	 3.0880881 	 296.6056 	 1.046 	 95.631
0.2640533 	 3.1857573 	 308.3645 	 1.047 	 95.597
0.2701849 	 3.2852849 	 319.7344 	 1.047 	 95.575
0.2761824 	 3.3858895 	 329.6359 	 1.049 	 95.557
0.2820596 	 3.4883715 	 339.2233 	 1.050 	 95.562
0.2878154 	 3.5923368 	 350.8258 	 1.051 	 95.531
0.2934532 	 3.6973377 	 358.9640 	 1.052 	 95.509
0.2989732 	 3.8041957 	 370.4903 	 1.053 	 95.494
0.3043871 	 3.9128874 	 381.1974 	 1.054 	 95.518
0.3097002 	 4.0222512 	 390.8398 	 1.055 	 95.491
0.3149070 	 4.1343074 	 400.7984 	 1.056 	 95.498
0.3200124 	 4.2474138 	 410.3203 	 1.056 	 95.485
0.3250199 	 4.3626582 	 421.0555 	 1.058 	 95.479
0.3299353 	 4.4776631 	 433.5238 	 1.059 	 95.438
0.3347571 	 4.5953529 	 443.9740 	 1.060 	 95.410
0.3394849 	 4.7138083 	 449.8577 	 1.060 	 95.411
0.3441309 	 4.8338749 	 458.2163 	 1.062 	 95.390
0.3486946 	 4.9551531 	 470.3588 	 1.063 	 95.417
0.3531785 	 5.0795235 	 475.3178 	 1.064 	 95.411
0.3575809 	 5.2037052 	 480.6470 	 1.064 	 95.379
0.3619064 	 5.3306165 	 492.5277 	 1.065 	 95.396
0.3661554 	 5.4579548 	 504.2524 	 1.066 	 95.370
0.3703345 	 5.5857661 	 513.9123 	 1.067 	 95.341
0.3744400 	 5.7161366 	 523.4116 	 1.067 	 95.316
0.3784758 	 5.8490770 	 534.8190 	 1.069 	 95.344
0.3824444 	 5.9825974 	 545.5324 	 1.070 	 95.331
0.3863483 	 6.1172853 	 553.7596 	 1.070 	 95.331
0.3901891 	 6.2528562 	 562.8543 	 1.071 	 95.310
0.3939705 	 6.3897821 	 569.8499 	 1.070 	 95.271
0.3976913 	 6.5284670 	 583.6409 	 1.072 	 95.270
0.4013495 	 6.6708731 	 597.1924 	 1.072 	 95.291
0.4049528 	 6.8108546 	 604.6808 	 1.073 	 95.260
0.4084994 	 6.9546323 	 613.2674 	 1.074 	 95.269
0.4119916 	 7.0976397 	 622.6031 	 1.074 	 95.228
0.4154285 	 7.2451539 	 632.2181 	 1.075 	 95.259
0.4188151 	 7.3928234 	 645.7219 	 1.076 	 95.219
0.4221506 	 7.5393629 	 653.1020 	 1.076 	 95.214
0.4254351 	 7.6890488 	 668.5855 	 1.077 	 95.202
0.4286709 	 7.8414043 	 680.6213 	 1.077 	 95.209
0.4318604 	 7.9950638 	 692.6741 	 1.078 	 95.194
0.4350026 	 8.1507838 	 703.8841 	 1.078 	 95.197
0.4381020 	 8.3045996 	 709.4746 	 1.078 	 95.168
0.4411577 	 8.4613885 	 716.5995 	 1.078 	 95.196
0.4441671 	 8.6215007 	 729.4287 	 1.079 	 95.184
0.4471355 	 8.7786624 	 733.5886 	 1.080 	 95.179
0.4500625 	 8.9411597 	 742.9380 	 1.080 	 95.170
0.4529509 	 9.1070910 	 757.8220 	 1.081 	 95.191
0.4557962 	 9.2664123 	 763.8285 	 1.081 	 95.147
0.4586054 	 9.4341071 	 773.7404 	 1.082 	 95.154
0.4613752 	 9.5967691 	 786.6372 	 1.082 	 95.106
0.4641098 	 9.7671452 	 796.1846 	 1.083 	 95.143
0.4668064 	 9.9377651 	 805.3415 	 1.082 	 95.148
0.4694693 	 10.1058149 	 814.3138 	 1.083 	 95.157
0.4720993 	 10.2775112 	 822.7745 	 1.083 	 95.102
0.4746932 	 10.4518160 	 833.3600 	 1.085 	 95.099
0.4772529 	 10.6223129 	 841.7660 	 1.085 	 95.077
0.4797793 	 10.7987718 	 850.8295 	 1.085 	 95.095
0.4822755 	 10.9770841 	 861.5408 	 1.085 	 95.069
0.4847377 	 11.1561546 	 867.0433 	 1.084 	 95.117
0.4871708 	 11.3356284 	 873.0083 	 1.085 	 95.074
0.4895735 	 11.5156450 	 874.8441 	 1.085 	 95.070
0.4919466 	 11.6985861 	 891.1823 	 1.086 	 95.071
0.4942903 	 11.8823586 	 902.0628 	 1.086 	 95.074
0.4966052 	 12.0664152 	 904.1622 	 1.086 	 95.037
0.4988924 	 12.2553503 	 921.0773 	 1.087 	 95.057
0.5011510 	 12.4430938 	 925.6814 	 1.087 	 95.040
0.5033845 	 12.6351268 	 937.7788 	 1.087 	 95.055
0.5055918 	 12.8227705 	 947.0612 	 1.087 	 95.028
0.5077705 	 13.0135607 	 963.9853 	 1.087 	 95.026
0.5099267 	 13.2109718 	 972.7278 	 1.088 	 95.011
0.5120557 	 13.4035998 	 990.5230 	 1.086 	 95.028
0.5141621 	 13.5996494 	 999.7146 	 1.087 	 95.035
0.5162432 	 13.7979743 	 1010.7313 	 1.088 	 95.007
0.5183004 	 13.9975367 	 1027.3732 	 1.088 	 95.018
0.5203329 	 14.1989485 	 1038.0939 	 1.088 	 95.008
0.5223432 	 14.3989752 	 1051.4153 	 1.089 	 94.995
0.5243319 	 14.6021784 	 1060.2287 	 1.089 	 95.003
0.5262974 	 14.8071781 	 1074.5400 	 1.088 	 94.991
0.5282400 	 15.0183919 	 1084.6092 	 1.089 	 94.975
0.5301645 	 15.2178413 	 1092.4577 	 1.089 	 94.977
0.5320659 	 15.4306250 	 1101.1728 	 1.089 	 94.974
0.5339482 	 15.6396503 	 1116.4198 	 1.089 	 94.975
0.5358078 	 15.8508401 	 1135.3650 	 1.089 	 94.960
0.5376498 	 16.0671957 	 1145.5607 	 1.089 	 94.979
0.5394709 	 16.2769370 	 1167.6101 	 1.089 	 94.973
0.5412712 	 16.4900988 	 1190.3022 	 1.088 	 94.938
0.5430543 	 16.7120568 	 1215.9366 	 1.088 	 94.972
0.5448181 	 16.9260380 	 1237.5727 	 1.088 	 94.942
0.5465633 	 17.1525562 	 1265.8204 	 1.088 	 94.946
0.5482907 	 17.3696526 	 1292.4344 	 1.087 	 94.925
0.5500005 	 17.5994870 	 1322.5418 	 1.088 	 94.915
0.5516923 	 17.8270334 	 1351.1296 	 1.088 	 94.926
0.5533662 	 18.0502363 	 1391.2587 	 1.087 	 94.923
0.5550214 	 18.2758122 	 1430.6034 	 1.086 	 94.914
0.5566605 	 18.5080797 	 1489.1845 	 1.087 	 94.877
0.5582827 	 18.7350033 	 1566.4068 	 1.087 	 94.867
0.5598881 	 18.9726945 	 1664.6110 	 1.086 	 94.897
0.5614769 	 19.2083189 	 1800.4017 	 1.086 	 94.898
0.5630509 	 19.4489785 	 1958.3346 	 1.087 	 94.878
0.5646084 	 19.6884426 	 2181.3386 	 1.086 	 94.848
0.5661489 	 19.9287899 	 2519.3168 	 1.086 	 94.863
0.5676741 	 20.1769899 	 3022.8243 	 1.086 	 94.858
0.5691836 	 20.4291676 	 3623.2312 	 1.085 	 94.866
0.5706782 	 20.6745253 	 4541.6453 	 1.085 	 94.848
0.5721588 	 20.9304921 	 5785.0750 	 1.085 	 94.844
0.5736240 	 21.1859378 	 7374.2816 	 1.085 	 94.812
0.5750738 	 21.4575628 	 9351.5651 	 1.086 	 94.836
0.5765082 	 21.7387914 	 11703.9574 	 1.085 	 94.851
0.5779270 	 22.0125684 	 14864.9764 	 1.086 	 94.832
0.5793297 	 22.3044639 	 18403.8118 	 1.086 	 94.829
0.5807170 	 22.6000762 	 22233.3059 	 1.087 	 94.808
0.5820894 	 22.9047506 	 26478.8865 	 1.087 	 94.824
0.5834445 	 23.2189723 	 31085.9463 	 1.088 	 94.791
0.5847833 	 23.5486942 	 35935.6096 	 1.089 	 94.836
0.5861059 	 23.8780149 	 40780.8498 	 1.090 	 94.832
0.5874117 	 24.2229427 	 44947.1016 	 1.091 	 94.836
0.5887010 	 24.5718927 	 49736.5330 	 1.092 	 94.836
0.5899742 	 24.9306668 	 53672.4862 	 1.094 	 94.832
0.5912303 	 25.2886834 	 57643.1362 	 1.095 	 94.879
0.5924706 	 25.6569422 	 61741.5910 	 1.097 	 94.913
0.5936944 	 26.0175351 	 65774.1222 	 1.098 	 94.938
0.5949039 	 26.3898126 	 71919.5097 	 1.099 	 94.950
0.5960983 	 26.7396137 	 81732.5447 	 1.100 	 94.961
0.5972789 	 27.0998230 	 96781.1139 	 1.100 	 95.053
0.5984463 	 27.4451732 	 119066.8759 	 1.101 	 95.063
0.5996007 	 27.7933021 	 152992.1161 	 1.101 	 95.132
0.6007429 	 28.1364678 	 197900.6955 	 1.101 	 95.126
0.6018717 	 28.5030311 	 256039.1354 	 1.101 	 95.192
0.6029871 	 28.8834667 	 323635.9549 	 1.100 	 95.233
0.6040896 	 29.2741642 	 397234.1063 	 1.100 	 95.261
0.6051789 	 29.7035397 	 470241.7870 	 1.099 	 95.292
0.6062530 	 30.1435348 	 544325.6197 	 1.099 	 95.281
0.6073123 	 30.6319746 	 612731.4858 	 1.100 	 95.299
0.6083560 	 31.1348055 	 671987.9265 	 1.101 	 95.290
0.6093829 	 31.6677467 	 722159.6657 	 1.102 	 95.281
0.6103943 	 32.2241274 	 766635.0105 	 1.103 	 95.281
0.6113880 	 32.8019388 	 802258.1485 	 1.104 	 95.256
0.6123657 	 33.4046290 	 833364.0046 	 1.106 	 95.246
0.6133264 	 34.0191669 	 858467.4931 	 1.107 	 95.201
0.6142711 	 34.6653737 	 876683.4789 	 1.109 	 95.199
0.6151989 	 35.3239202 	 891472.3380 	 1.112 	 95.195
0.6161099 	 36.0060698 	 906497.3038 	 1.113 	 95.153
0.6170047 	 36.7076296 	 915245.9582 	 1.115 	 95.159
0.6178839 	 37.4251666 	 925005.0604 	 1.117 	 95.109
0.6187461 	 38.1546678 	 931771.2721 	 1.119 	 95.108
0.6195920 	 38.9252186 	 937003.1129 	 1.122 	 95.080
0.6204218 	 39.6916898 	 941444.2240 	 1.124 	 95.063
0.6212371 	 40.4917890 	 945373.0757 	 1.126 	 95.036
0.6220366 	 41.3102339 	 947409.7177 	 1.129 	 95.041
0.6228210 	 42.1222719 	 947716.1228 	 1.132 	 94.968
0.6235903 	 42.9927458 	 947379.9810 	 1.134 	 94.981
0.6243443 	 43.8752431 	 947998.9663 	 1.136 	 94.998
0.6250840 	 44.7632779 	 947295.1421 	 1.139 	 94.933
0.6258097 	 45.6846242 	 945194.6369 	 1.141 	 94.883
0.6265207 	 46.6306965 	 942863.9261 	 1.145 	 94.907
0.6272182 	 47.5983150 	 939619.2568 	 1.147 	 94.867
0.6279011 	 48.5700294 	 936117.6112 	 1.150 	 94.837
0.6285709 	 49.6161180 	 933386.5174 	 1.153 	 94.855
0.6292277 	 50.6433819 	 929785.3018 	 1.155 	 94.821
0.6298708 	 51.6893690 	 922246.8910 	 1.158 	 94.770
