N=100 	 R=1000000 	 s=1 	 Save [density, Z, rho_t, like/unlike, events per sweep]
0.0001356 	 1.0005127 	 1.1027 	 1.010 	 10.125
0.0132554 	 1.1624954 	 12.1848 	 0.951 	 46.780
0.0260848 	 1.1528742 	 22.7945 	 1.004 	 78.955
0.0385022 	 1.1918426 	 33.3475 	 1.013 	 88.240
0.0505260 	 1.2395942 	 43.6786 	 1.016 	 92.037
0.0621719 	 1.2921441 	 54.4858 	 1.017 	 93.784
0.0734708 	 1.3482604 	 64.5936 	 1.019 	 94.768
0.0844307 	 1.4075432 	 75.3127 	 1.020 	 95.219
0.0950701 	 1.4695400 	 85.7419 	 1.021 	 95.529
0.1054045 	 1.5337391 	 96.6713 	 1.022 	 95.687
0.1154507 	 1.6000780 	 107.4027 	 1.024 	 95.725
0.1252159 	 1.6685833 	 117.2460 	 1.024 	 95.785
0.1347093 	 1.7386615 	 125.9992 	 1.026 	 95.816
0.1439473 	 1.8100466 	 136.3192 	 1.027 	 95.873
0.1529373 	 1.8840969 	 146.2036 	 1.028 	 95.848
0.1616973 	 1.9595047 	 157.0050 	 1.029 	 95.802
0.1702317 	 2.0371914 	 168.0146 	 1.031 	 95.822
0.1785430 	 2.1156946 	 177.4947 	 1.033 	 95.798
0.1866500 	 2.1963363 	 187.7852 	 1.034 	 95.758
0.1945500 	 2.2784495 	 196.6435 	 1.035 	 95.781
0.2022609 	 2.3617581 	 206.4624 	 1.036 	 95.725
0.2097819 	 2.4472951 	 217.1950 	 1.037 	 95.726
0.2171307 	 2.5337879 	 230.2393 	 1.038 	 95.671
0.2243064 	 2.6229803 	 239.5734 	 1.040 	 95.687
0.2313102 	 2.7128835 	 251.2164 	 1.041 	 95.669
0.2381556 	 2.8038019 	 261.3330 	 1.042 	 95.654
0.2448524 	 2.8972403 	 273.0287 	 1.043 	 95.667
0.2513998 	 2.9920364 	 282.1516 	 1.044 	 95.626
0.2578044 	 3.0885030 	 291.3576 	 1.046 	 95.618
0.2640673 	 3.1859592 	 302.0720 	 1.047 	 95.589
0.2701986 	 3.2849208 	 312.9865 	 1.048 	 95.569
0.2762011 	 3.3858692 	 322.0533 	 1.049 	 95.569
0.2820708 	 3.4886327 	 333.5617 	 1.050 	 95.562
0.2878257 	 3.5926172 	 343.2326 	 1.050 	 95.546
0.2934611 	 3.6978072 	 352.6496 	 1.052 	 95.551
0.2989857 	 3.8048479 	 362.7995 	 1.053 	 95.522
0.3043944 	 3.9124906 	 373.7520 	 1.053 	 95.505
0.3096977 	 4.0225185 	 383.3375 	 1.056 	 95.478
0.3149018 	 4.1338825 	 395.4330 	 1.056 	 95.464
0.3200043 	 4.2463545 	 402.4503 	 1.056 	 95.465
0.3250134 	 4.3619028 	 410.8524 	 1.058 	 95.454
0.3299272 	 4.4772814 	 421.9998 	 1.058 	 95.425
0.3347528 	 4.5944560 	 431.3985 	 1.060 	 95.421
0.3394851 	 4.7136464 	 445.1506 	 1.060 	 95.410
0.3441303 	 4.8342882 	 456.4951 	 1.062 	 95.412
0.3486891 	 4.9561331 	 464.2104 	 1.062 	 95.403
0.3531726 	 5.0792449 	 475.2562 	 1.063 	 95.381
0.3575767 	 5.2038435 	 489.2716 	 1.064 	 95.382
0.3619031 	 5.3299909 	 500.2256 	 1.066 	 95.380
0.3661548 	 5.4587065 	 507.3840 	 1.066 	 95.385
0.3703321 	 5.5872582 	 516.9822 	 1.067 	 95.367
0.3744411 	 5.7180247 	 526.3953 	 1.068 	 95.335
0.3784802 	 5.8486750 	 539.6907 	 1.068 	 95.329
0.3824511 	 5.9813268 	 549.4806 	 1.069 	 95.316
0.3863568 	 6.1169932 	 566.2646 	 1.069 	 95.312
0.3901986 	 6.2526205 	 576.4876 	 1.070 	 95.291
0.3939782 	 6.3912863 	 587.6049 	 1.071 	 95.326
0.3976986 	 6.5285065 	 595.7803 	 1.072 	 95.291
0.4013596 	 6.6702137 	 604.2157 	 1.072 	 95.259
0.4049618 	 6.8123053 	 616.5970 	 1.073 	 95.259
0.4085089 	 6.9560017 	 629.5014 	 1.073 	 95.269
0.4120000 	 7.0990874 	 643.5545 	 1.074 	 95.242
0.4154368 	 7.2449191 	 651.8522 	 1.075 	 95.226
0.4188236 	 7.3943738 	 663.0865 	 1.075 	 95.248
0.4221612 	 7.5397857 	 674.7475 	 1.076 	 95.216
0.4254486 	 7.6919115 	 683.7070 	 1.077 	 95.215
0.4286837 	 7.8424798 	 689.6479 	 1.077 	 95.197
0.4318749 	 7.9951238 	 698.9882 	 1.077 	 95.199
0.4350173 	 8.1508951 	 708.2174 	 1.078 	 95.209
0.4381134 	 8.3077844 	 717.9809 	 1.079 	 95.225
0.4411687 	 8.4619455 	 730.0904 	 1.079 	 95.149
0.4441797 	 8.6223113 	 743.5152 	 1.079 	 95.179
0.4471479 	 8.7792533 	 750.5677 	 1.080 	 95.164
0.4500750 	 8.9425803 	 760.6273 	 1.081 	 95.164
0.4529606 	 9.1024911 	 773.1559 	 1.081 	 95.149
0.4558062 	 9.2670049 	 784.7557 	 1.081 	 95.144
0.4586145 	 9.4315867 	 795.3357 	 1.082 	 95.134
0.4613839 	 9.5991620 	 802.4262 	 1.083 	 95.144
0.4641185 	 9.7677490 	 808.2648 	 1.082 	 95.151
0.4668164 	 9.9371364 	 809.7200 	 1.083 	 95.144
0.4694775 	 10.1074674 	 818.1639 	 1.084 	 95.114
0.4721045 	 10.2746627 	 836.0112 	 1.083 	 95.114
0.4746993 	 10.4499066 	 843.6144 	 1.084 	 95.102
0.4772598 	 10.6241748 	 852.7324 	 1.083 	 95.095
0.4797880 	 10.8011938 	 857.4892 	 1.084 	 95.108
0.4822820 	 10.9766144 	 865.9204 	 1.084 	 95.091
0.4847472 	 11.1537118 	 875.3711 	 1.085 	 95.069
0.4871805 	 11.3394857 	 885.9505 	 1.085 	 95.123
0.4895843 	 11.5188074 	 898.4793 	 1.085 	 95.099
0.4919598 	 11.7006081 	 910.0034 	 1.085 	 95.067
0.4943053 	 11.8874468 	 919.9059 	 1.086 	 95.051
0.4966211 	 12.0720513 	 925.9611 	 1.085 	 95.079
0.4989075 	 12.2561460 	 928.3094 	 1.085 	 95.049
0.5011681 	 12.4435907 	 940.3990 	 1.086 	 95.054
0.5034026 	 12.6356565 	 947.0231 	 1.086 	 95.080
0.5056099 	 12.8246366 	 949.2238 	 1.086 	 95.047
0.5077906 	 13.0182635 	 962.5170 	 1.086 	 95.047
0.5099453 	 13.2074967 	 977.6661 	 1.086 	 95.002
0.5120742 	 13.4055908 	 987.7863 	 1.086 	 95.021
0.5141789 	 13.6002230 	 995.2397 	 1.086 	 95.002
0.5162597 	 13.7987778 	 1004.6883 	 1.087 	 94.994
0.5183166 	 13.9996112 	 1007.3281 	 1.087 	 95.006
0.5203525 	 14.2021186 	 1012.4922 	 1.088 	 95.002
0.5223630 	 14.3980393 	 1025.7552 	 1.088 	 94.979
0.5243506 	 14.6066205 	 1034.5075 	 1.088 	 95.005
0.5263156 	 14.8117074 	 1033.5371 	 1.087 	 94.991
0.5282591 	 15.0154514 	 1043.0465 	 1.088 	 94.982
0.5301826 	 15.2242472 	 1053.3939 	 1.088 	 94.969
0.5320831 	 15.4399694 	 1066.2779 	 1.089 	 95.012
0.5339639 	 15.6425030 	 1071.3905 	 1.089 	 94.985
0.5358246 	 15.8562550 	 1085.0621 	 1.088 	 94.979
0.5376652 	 16.0666228 	 1098.9409 	 1.088 	 94.972
0.5394866 	 16.2796959 	 1124.3497 	 1.088 	 94.920
0.5412878 	 16.4906147 	 1151.5991 	 1.088 	 94.922
0.5430697 	 16.7118648 	 1174.1524 	 1.087 	 94.938
0.5448327 	 16.9330357 	 1201.6872 	 1.087 	 94.966
0.5465775 	 17.1564298 	 1233.1265 	 1.087 	 94.928
0.5483039 	 17.3744691 	 1270.0653 	 1.087 	 94.908
0.5500134 	 17.6047934 	 1305.7507 	 1.086 	 94.910
0.5517050 	 17.8250472 	 1348.0638 	 1.086 	 94.912
0.5533778 	 18.0576187 	 1402.5415 	 1.086 	 94.907
0.5550328 	 18.2895030 	 1472.3001 	 1.086 	 94.934
0.5566717 	 18.5133772 	 1553.1808 	 1.085 	 94.890
0.5582937 	 18.7454687 	 1637.6647 	 1.084 	 94.929
0.5598997 	 18.9754228 	 1753.9611 	 1.083 	 94.901
0.5614907 	 19.2053691 	 1905.1296 	 1.083 	 94.883
0.5630655 	 19.4354518 	 2084.6564 	 1.083 	 94.864
0.5646234 	 19.6753644 	 2362.8171 	 1.083 	 94.880
0.5661660 	 19.9108634 	 2722.8780 	 1.082 	 94.853
0.5676933 	 20.1569039 	 3222.0944 	 1.082 	 94.869
0.5692067 	 20.4081112 	 3875.9183 	 1.081 	 94.886
0.5707028 	 20.6559734 	 4772.3729 	 1.081 	 94.884
0.5721850 	 20.9010372 	 5957.9695 	 1.081 	 94.863
0.5736523 	 21.1613720 	 7537.2321 	 1.081 	 94.887
0.5751043 	 21.4220355 	 9509.5049 	 1.081 	 94.883
0.5765422 	 21.6929228 	 11865.9615 	 1.082 	 94.903
0.5779631 	 21.9700341 	 14783.9997 	 1.081 	 94.870
0.5793692 	 22.2614267 	 18365.2603 	 1.081 	 94.858
0.5807591 	 22.5590063 	 22987.7121 	 1.082 	 94.860
0.5821334 	 22.8682621 	 27824.4747 	 1.082 	 94.867
0.5834928 	 23.1851148 	 33276.1702 	 1.083 	 94.855
0.5848337 	 23.5171386 	 39446.7114 	 1.084 	 94.854
0.5861566 	 23.8501914 	 46475.4837 	 1.086 	 94.898
0.5874634 	 24.2004362 	 53194.2178 	 1.086 	 94.863
0.5887525 	 24.5597882 	 61028.7154 	 1.088 	 94.885
0.5900263 	 24.9324800 	 68533.7548 	 1.088 	 94.874
0.5912826 	 25.3159509 	 77059.6355 	 1.089 	 94.878
0.5925218 	 25.7023023 	 85151.2954 	 1.090 	 94.893
0.5937436 	 26.0951369 	 91622.9216 	 1.090 	 94.859
0.5949483 	 26.5040829 	 98727.8609 	 1.090 	 94.834
0.5961373 	 26.9156423 	 105397.6512 	 1.090 	 94.838
0.5973093 	 27.3356494 	 111522.8793 	 1.089 	 94.857
0.5984644 	 27.7566290 	 117718.2611 	 1.087 	 94.827
0.5996024 	 28.2006239 	 125057.8327 	 1.085 	 94.847
0.6007262 	 28.6321018 	 133787.5341 	 1.081 	 94.835
0.6018335 	 29.0674139 	 144090.6223 	 1.078 	 94.793
0.6029259 	 29.5210635 	 158630.6687 	 1.074 	 94.815
0.6040033 	 29.9795111 	 178306.8706 	 1.070 	 94.808
0.6050654 	 30.4301605 	 203679.1969 	 1.065 	 94.802
0.6061129 	 30.8961780 	 232148.0328 	 1.060 	 94.762
0.6071447 	 31.3675698 	 265262.7197 	 1.056 	 94.778
0.6081642 	 31.8416745 	 301909.0108 	 1.052 	 94.790
0.6091688 	 32.3305117 	 342326.3881 	 1.048 	 94.770
0.6101590 	 32.8313203 	 385419.8051 	 1.044 	 94.774
0.6111357 	 33.3281678 	 429159.7067 	 1.041 	 94.742
0.6120984 	 33.8266194 	 477320.1564 	 1.038 	 94.736
0.6130480 	 34.3371378 	 527616.2153 	 1.037 	 94.730
0.6139850 	 34.8422983 	 580693.1644 	 1.036 	 94.734
0.6149099 	 35.3509943 	 635130.3158 	 1.036 	 94.772
0.6158223 	 35.8672340 	 688113.7900 	 1.036 	 94.752
0.6167229 	 36.3762691 	 742680.9949 	 1.038 	 94.736
0.6176116 	 36.9069493 	 793054.7715 	 1.041 	 94.728
0.6184882 	 37.4446657 	 835321.6655 	 1.043 	 94.729
0.6193522 	 38.0222454 	 874306.2522 	 1.047 	 94.730
0.6202041 	 38.6304611 	 908623.8279 	 1.051 	 94.728
0.6210432 	 39.2411171 	 935298.0216 	 1.055 	 94.687
0.6218691 	 39.9203944 	 954330.9885 	 1.059 	 94.690
0.6226822 	 40.6223398 	 967614.0990 	 1.063 	 94.668
0.6234818 	 41.3553115 	 979116.0037 	 1.066 	 94.661
0.6242673 	 42.1170084 	 986372.8418 	 1.070 	 94.625
0.6250387 	 42.9146071 	 991650.9038 	 1.073 	 94.621
0.6257962 	 43.7372170 	 994509.1086 	 1.077 	 94.601
0.6265397 	 44.5928367 	 996506.1215 	 1.080 	 94.585
0.6272702 	 45.4814071 	 997527.0653 	 1.084 	 94.535
0.6279863 	 46.3792280 	 998239.5523 	 1.086 	 94.536
0.6286886 	 47.3182946 	 998890.6160 	 1.090 	 94.519
0.6293780 	 48.2704246 	 999398.1812 	 1.093 	 94.503
