N=100 	 R=1000000 	 s=1 	 Save [density, Z, rho_t, like/unlike, events per sweep]
0.0001343 	 1.0005126 	 1.1027 	 1.010 	 10.125
0.0132511 	 1.1626944 	 12.2437 	 0.951 	 46.767
0.0260758 	 1.1527826 	 22.8634 	 1.004 	 78.909
0.0384891 	 1.1917963 	 33.3539 	 1.013 	 88.234
0.0505042 	 1.2395157 	 43.8626 	 1.016 	 92.023
0.0621511 	 1.2920325 	 54.4622 	 1.018 	 93.793
0.0734507 	 1.3481419 	 64.6726 	 1.019 	 94.756
0.0844208 	 1.4075667 	 74.9114 	 1.020 	 95.244
0.0950681 	 1.4694233 	 85.0129 	 1.021 	 95.487
0.1054010 	 1.5337292 	 95.4072 	 1.022 	 95.653
0.1154510 	 1.6001939 	 105.9233 	 1.024 	 95.740
0.1252055 	 1.6685552 	 115.3664 	 1.025 	 95.816
0.1347081 	 1.7386541 	 125.7943 	 1.026 	 95.838
0.1439477 	 1.8100085 	 136.3620 	 1.027 	 95.880
0.1529380 	 1.8840614 	 146.8052 	 1.029 	 95.861
0.1616900 	 1.9596378 	 157.5710 	 1.030 	 95.833
0.1702193 	 2.0369330 	 167.0938 	 1.031 	 95.797
0.1785366 	 2.1156806 	 177.2707 	 1.033 	 95.771
0.1866370 	 2.1964675 	 189.1694 	 1.033 	 95.797
0.1945352 	 2.2784545 	 199.6293 	 1.035 	 95.766
0.2022455 	 2.3618659 	 211.2639 	 1.036 	 95.748
0.2097676 	 2.4470110 	 221.6105 	 1.038 	 95.717
0.2171159 	 2.5342541 	 232.4109 	 1.038 	 95.738
0.2242882 	 2.6224630 	 241.0362 	 1.040 	 95.681
0.2312983 	 2.7120760 	 251.2538 	 1.041 	 95.665
0.2381449 	 2.8039006 	 260.9552 	 1.042 	 95.660
0.2448361 	 2.8974420 	 270.4719 	 1.043 	 95.674
0.2513800 	 2.9921298 	 280.0777 	 1.044 	 95.639
0.2577794 	 3.0882851 	 291.2157 	 1.045 	 95.608
0.2640450 	 3.1854286 	 301.7332 	 1.046 	 95.595
0.2701762 	 3.2848045 	 313.0698 	 1.047 	 95.567
0.2761747 	 3.3857417 	 325.5629 	 1.048 	 95.539
0.2820493 	 3.4882064 	 333.0707 	 1.050 	 95.557
0.2878042 	 3.5917391 	 343.1259 	 1.051 	 95.561
0.2934401 	 3.6976171 	 353.7420 	 1.052 	 95.540
0.2989595 	 3.8037154 	 365.1676 	 1.053 	 95.503
0.3043731 	 3.9123965 	 375.4813 	 1.054 	 95.502
0.3096812 	 4.0220849 	 388.3298 	 1.055 	 95.458
0.3148884 	 4.1333361 	 398.6016 	 1.055 	 95.460
0.3199944 	 4.2464551 	 408.3911 	 1.057 	 95.463
0.3250009 	 4.3614326 	 418.1711 	 1.058 	 95.441
0.3299142 	 4.4776238 	 428.2607 	 1.058 	 95.442
0.3347327 	 4.5944234 	 438.4724 	 1.059 	 95.433
0.3394658 	 4.7131124 	 446.7131 	 1.060 	 95.433
0.3441130 	 4.8347560 	 455.9158 	 1.061 	 95.429
0.3486774 	 4.9558395 	 469.2934 	 1.062 	 95.402
0.3531614 	 5.0784071 	 479.0794 	 1.063 	 95.369
0.3575628 	 5.2025274 	 489.5736 	 1.064 	 95.366
0.3618894 	 5.3287579 	 499.3318 	 1.066 	 95.359
0.3661401 	 5.4573096 	 512.5819 	 1.066 	 95.363
0.3703186 	 5.5864910 	 520.9950 	 1.067 	 95.328
0.3744271 	 5.7157114 	 534.7006 	 1.068 	 95.331
0.3784651 	 5.8492663 	 542.9127 	 1.068 	 95.372
0.3824353 	 5.9835241 	 550.7479 	 1.069 	 95.335
0.3863403 	 6.1170002 	 560.5436 	 1.069 	 95.329
0.3901818 	 6.2532640 	 567.5104 	 1.070 	 95.320
0.3939607 	 6.3903614 	 579.7906 	 1.071 	 95.282
0.3976814 	 6.5292706 	 586.7962 	 1.071 	 95.285
0.4013429 	 6.6700978 	 598.5160 	 1.072 	 95.276
0.4049461 	 6.8102177 	 609.5286 	 1.072 	 95.264
0.4084943 	 6.9540226 	 627.2086 	 1.074 	 95.267
0.4119865 	 7.1011376 	 635.1404 	 1.075 	 95.267
0.4154231 	 7.2457603 	 647.5838 	 1.075 	 95.250
0.4188118 	 7.3916978 	 661.3439 	 1.075 	 95.193
0.4221459 	 7.5405551 	 672.0474 	 1.075 	 95.232
0.4254313 	 7.6910131 	 679.2487 	 1.077 	 95.215
0.4286672 	 7.8413889 	 688.1082 	 1.077 	 95.213
0.4318562 	 7.9950324 	 695.2656 	 1.078 	 95.212
0.4350014 	 8.1475959 	 702.8094 	 1.078 	 95.193
0.4381037 	 8.3045942 	 716.7060 	 1.079 	 95.191
0.4411561 	 8.4607021 	 730.2956 	 1.080 	 95.164
0.4441674 	 8.6197889 	 738.8876 	 1.080 	 95.174
0.4471362 	 8.7807271 	 749.7004 	 1.080 	 95.195
0.4500668 	 8.9396230 	 755.7938 	 1.080 	 95.164
0.4529534 	 9.1048098 	 769.0601 	 1.081 	 95.142
0.4557997 	 9.2660862 	 780.6291 	 1.082 	 95.117
0.4586075 	 9.4336134 	 790.5601 	 1.083 	 95.119
0.4613792 	 9.5967951 	 801.0935 	 1.083 	 95.114
0.4641121 	 9.7643688 	 806.6532 	 1.082 	 95.111
0.4668096 	 9.9369586 	 813.3772 	 1.083 	 95.128
0.4694719 	 10.1033587 	 821.2236 	 1.083 	 95.112
0.4721010 	 10.2781787 	 835.8545 	 1.084 	 95.123
0.4746951 	 10.4506484 	 841.8500 	 1.084 	 95.113
0.4772562 	 10.6237718 	 852.5950 	 1.085 	 95.093
0.4797826 	 10.8012635 	 867.0509 	 1.086 	 95.092
0.4822778 	 10.9781139 	 876.8970 	 1.085 	 95.093
0.4847430 	 11.1565616 	 888.4263 	 1.085 	 95.061
0.4871746 	 11.3343754 	 892.8219 	 1.086 	 95.067
0.4895761 	 11.5192413 	 904.6741 	 1.086 	 95.084
0.4919488 	 11.6981635 	 911.5434 	 1.086 	 95.045
0.4942922 	 11.8814291 	 919.3266 	 1.087 	 95.057
0.4966081 	 12.0689540 	 928.9517 	 1.087 	 95.064
0.4988952 	 12.2557257 	 941.3838 	 1.087 	 95.063
0.5011564 	 12.4418963 	 952.0336 	 1.086 	 95.030
0.5033896 	 12.6329786 	 966.7888 	 1.086 	 95.052
0.5055965 	 12.8237601 	 980.4068 	 1.088 	 95.043
0.5077750 	 13.0168022 	 989.7559 	 1.087 	 95.046
0.5099302 	 13.2070057 	 999.8610 	 1.088 	 95.002
0.5120594 	 13.4071906 	 1017.0076 	 1.088 	 95.032
0.5141657 	 13.6020791 	 1031.2298 	 1.088 	 95.040
0.5162477 	 13.7997531 	 1046.4267 	 1.087 	 95.012
0.5183038 	 13.9966157 	 1053.4756 	 1.088 	 95.023
0.5203374 	 14.1963448 	 1059.5308 	 1.088 	 95.000
0.5223490 	 14.3952100 	 1074.1548 	 1.087 	 94.988
0.5243359 	 14.5978055 	 1088.5759 	 1.087 	 94.976
0.5263020 	 14.8016736 	 1100.0066 	 1.087 	 94.992
0.5282462 	 15.0107131 	 1118.4330 	 1.088 	 94.992
0.5301722 	 15.2180337 	 1139.9695 	 1.088 	 94.961
0.5320735 	 15.4289453 	 1150.6641 	 1.087 	 94.972
0.5339556 	 15.6384035 	 1161.8807 	 1.086 	 94.970
0.5358156 	 15.8530784 	 1169.0790 	 1.088 	 94.962
0.5376545 	 16.0671869 	 1185.4456 	 1.088 	 94.953
0.5394747 	 16.2820314 	 1199.4929 	 1.087 	 94.951
0.5412746 	 16.5052242 	 1224.3396 	 1.087 	 94.959
0.5430562 	 16.7273845 	 1245.9167 	 1.087 	 94.974
0.5448186 	 16.9431165 	 1269.1909 	 1.087 	 94.958
0.5465609 	 17.1647044 	 1297.0690 	 1.086 	 94.934
0.5482862 	 17.3907212 	 1312.7768 	 1.085 	 94.927
0.5499937 	 17.6158116 	 1341.4080 	 1.085 	 94.919
0.5516833 	 17.8390419 	 1375.8639 	 1.084 	 94.903
0.5533542 	 18.0752338 	 1414.5157 	 1.084 	 94.913
0.5550074 	 18.2993307 	 1454.5902 	 1.083 	 94.881
0.5566438 	 18.5395243 	 1502.1217 	 1.083 	 94.869
0.5582634 	 18.7787646 	 1565.2603 	 1.081 	 94.897
0.5598658 	 19.0153999 	 1630.4595 	 1.081 	 94.878
0.5614517 	 19.2605435 	 1714.7667 	 1.081 	 94.905
0.5630220 	 19.5031308 	 1823.1651 	 1.081 	 94.900
0.5645761 	 19.7463027 	 1973.2532 	 1.079 	 94.882
0.5661133 	 19.9889882 	 2155.1882 	 1.079 	 94.872
0.5676339 	 20.2470212 	 2393.0974 	 1.078 	 94.883
0.5691390 	 20.4947283 	 2747.2148 	 1.077 	 94.876
0.5706294 	 20.7483226 	 3190.7404 	 1.076 	 94.824
0.5721039 	 21.0108254 	 3765.5116 	 1.075 	 94.860
0.5735631 	 21.2765171 	 4646.2398 	 1.074 	 94.873
0.5750051 	 21.5505853 	 5863.0053 	 1.072 	 94.845
0.5764319 	 21.8282595 	 7492.3411 	 1.069 	 94.877
0.5778426 	 22.1033130 	 10097.0937 	 1.066 	 94.841
0.5792398 	 22.3854564 	 13656.7596 	 1.061 	 94.875
0.5806205 	 22.6811924 	 19032.7441 	 1.056 	 94.905
0.5819872 	 22.9782203 	 26398.7971 	 1.050 	 94.915
0.5833396 	 23.2745631 	 35834.3630 	 1.042 	 94.915
0.5846760 	 23.5825016 	 49280.2651 	 1.034 	 94.954
0.5859961 	 23.9003213 	 66240.6042 	 1.025 	 94.977
0.5873009 	 24.2225661 	 86425.3939 	 1.015 	 94.997
0.5885903 	 24.5670896 	 110417.6541 	 1.005 	 95.041
0.5898635 	 24.9201709 	 141007.9604 	 0.993 	 95.088
0.5911211 	 25.2804422 	 174263.7878 	 0.981 	 95.140
0.5923625 	 25.6521377 	 212071.6418 	 0.969 	 95.150
0.5935874 	 26.0447427 	 249247.4066 	 0.958 	 95.173
0.5947945 	 26.4587518 	 287956.1036 	 0.948 	 95.239
0.5959848 	 26.8676605 	 326558.0265 	 0.938 	 95.223
0.5971570 	 27.3041408 	 360277.7713 	 0.930 	 95.244
0.5983125 	 27.7703818 	 390719.9451 	 0.924 	 95.278
0.5994509 	 28.2390666 	 420587.8786 	 0.917 	 95.281
0.6005705 	 28.7262143 	 446471.9103 	 0.912 	 95.318
0.6016727 	 29.2294158 	 469701.5400 	 0.908 	 95.343
0.6027565 	 29.7522454 	 488236.0387 	 0.904 	 95.348
0.6038227 	 30.2909818 	 503603.6695 	 0.902 	 95.357
0.6048714 	 30.8384179 	 507791.5891 	 0.901 	 95.370
0.6059024 	 31.4008555 	 513021.3546 	 0.900 	 95.377
0.6069147 	 31.9831829 	 514490.9196 	 0.900 	 95.396
0.6079110 	 32.5701044 	 510553.4935 	 0.901 	 95.380
0.6088904 	 33.1767411 	 502455.5271 	 0.902 	 95.370
0.6098531 	 33.7931022 	 489424.1074 	 0.905 	 95.369
0.6107988 	 34.4196915 	 470236.7655 	 0.909 	 95.361
0.6117285 	 35.0609259 	 445928.6218 	 0.914 	 95.393
0.6126412 	 35.6970554 	 422346.6978 	 0.918 	 95.378
0.6135397 	 36.3573787 	 397646.6513 	 0.924 	 95.397
0.6144226 	 36.9974484 	 369331.2302 	 0.929 	 95.359
0.6152910 	 37.6637933 	 343476.3274 	 0.935 	 95.378
0.6161450 	 38.3331089 	 315796.9856 	 0.941 	 95.381
0.6169846 	 38.9886287 	 287884.9131 	 0.948 	 95.384
0.6178108 	 39.6570065 	 264393.3266 	 0.955 	 95.412
0.6186236 	 40.3128357 	 245018.8220 	 0.962 	 95.389
0.6194243 	 40.9679580 	 233267.5247 	 0.967 	 95.397
0.6202137 	 41.6436839 	 229357.8939 	 0.973 	 95.375
0.6209907 	 42.3215817 	 233807.2352 	 0.976 	 95.421
0.6217553 	 43.0167784 	 243807.5058 	 0.979 	 95.436
0.6225087 	 43.7163227 	 259838.2208 	 0.979 	 95.447
0.6232501 	 44.4293610 	 281482.7690 	 0.978 	 95.439
0.6239804 	 45.1844493 	 304635.4758 	 0.977 	 95.457
0.6246989 	 45.9431502 	 332490.8833 	 0.974 	 95.479
0.6254058 	 46.7313333 	 356061.0811 	 0.970 	 95.491
0.6261009 	 47.5817139 	 374983.0048 	 0.968 	 95.505
0.6267848 	 48.4157305 	 393527.8494 	 0.964 	 95.481
0.6274562 	 49.3145163 	 410932.8208 	 0.961 	 95.491
0.6281164 	 50.2228527 	 421757.1944 	 0.957 	 95.483
0.6287649 	 51.1658454 	 436510.6074 	 0.954 	 95.502
0.6294025 	 52.1123361 	 448877.4173 	 0.951 	 95.476
