N=100 	 R=1000000 	 s=1 	 Save [density, Z, rho_t, like/unlike, events per sweep]
0.0001350 	 1.0005116 	 1.1026 	 1.009 	 10.125
0.0132492 	 1.1627974 	 12.1499 	 0.950 	 46.741
0.0260747 	 1.1528180 	 22.7571 	 1.004 	 78.920
0.0385024 	 1.1918241 	 33.1497 	 1.013 	 88.266
0.0505230 	 1.2396239 	 43.8427 	 1.016 	 92.028
0.0621713 	 1.2921880 	 54.1347 	 1.018 	 93.782
0.0734696 	 1.3482517 	 64.9270 	 1.019 	 94.789
0.0844391 	 1.4076133 	 75.3965 	 1.020 	 95.193
0.0950749 	 1.4696627 	 86.0345 	 1.021 	 95.504
0.1054167 	 1.5338052 	 96.3553 	 1.022 	 95.678
0.1154604 	 1.6001362 	 106.3314 	 1.023 	 95.763
0.1252295 	 1.6685189 	 116.6204 	 1.024 	 95.791
0.1347195 	 1.7387025 	 128.1463 	 1.026 	 95.828
0.1439610 	 1.8103635 	 138.9143 	 1.027 	 95.905
0.1529541 	 1.8842775 	 149.7669 	 1.029 	 95.867
0.1617031 	 1.9597620 	 159.8898 	 1.030 	 95.832
0.1702383 	 2.0368085 	 170.4029 	 1.031 	 95.772
0.1785446 	 2.1159664 	 180.7239 	 1.033 	 95.807
0.1866492 	 2.1965284 	 189.9843 	 1.033 	 95.754
0.1945522 	 2.2784397 	 202.4054 	 1.035 	 95.760
0.2022668 	 2.3621870 	 212.2262 	 1.036 	 95.752
0.2097911 	 2.4475926 	 223.1407 	 1.037 	 95.736
0.2171340 	 2.5343254 	 233.0214 	 1.038 	 95.702
0.2243034 	 2.6226904 	 244.1477 	 1.040 	 95.693
0.2313127 	 2.7128234 	 254.3424 	 1.041 	 95.673
0.2381658 	 2.8040957 	 265.8971 	 1.043 	 95.638
0.2448578 	 2.8974178 	 272.5338 	 1.043 	 95.639
0.2514012 	 2.9923527 	 281.6760 	 1.044 	 95.656
0.2578029 	 3.0885716 	 293.2643 	 1.046 	 95.613
0.2640674 	 3.1860424 	 303.3613 	 1.046 	 95.607
0.2701992 	 3.2852776 	 315.2278 	 1.047 	 95.594
0.2762000 	 3.3861842 	 326.3991 	 1.048 	 95.561
0.2820742 	 3.4885885 	 339.1341 	 1.049 	 95.535
0.2878288 	 3.5926121 	 347.3009 	 1.051 	 95.534
0.2934692 	 3.6976513 	 355.8945 	 1.052 	 95.539
0.2989913 	 3.8050327 	 366.6366 	 1.053 	 95.501
0.3044021 	 3.9128327 	 376.3340 	 1.054 	 95.496
0.3097100 	 4.0235262 	 387.5875 	 1.055 	 95.474
0.3149126 	 4.1341183 	 399.0853 	 1.056 	 95.486
0.3200120 	 4.2474030 	 407.6634 	 1.056 	 95.456
0.3250180 	 4.3616803 	 416.4044 	 1.058 	 95.462
0.3299284 	 4.4771739 	 426.0237 	 1.059 	 95.436
0.3347551 	 4.5955371 	 437.3268 	 1.060 	 95.440
0.3394893 	 4.7140775 	 447.6581 	 1.061 	 95.435
0.3441346 	 4.8336523 	 455.8726 	 1.061 	 95.403
0.3486958 	 4.9567628 	 463.7993 	 1.062 	 95.389
0.3531819 	 5.0790515 	 474.3889 	 1.063 	 95.410
0.3575837 	 5.2038542 	 484.8991 	 1.065 	 95.394
0.3619089 	 5.3304678 	 495.2964 	 1.065 	 95.400
0.3661594 	 5.4577870 	 506.8761 	 1.066 	 95.360
0.3703361 	 5.5861480 	 518.4744 	 1.067 	 95.354
0.3744413 	 5.7165646 	 527.6307 	 1.067 	 95.332
0.3784813 	 5.8492473 	 540.4610 	 1.069 	 95.328
0.3824534 	 5.9825168 	 549.4661 	 1.069 	 95.308
0.3863563 	 6.1181575 	 559.1213 	 1.069 	 95.325
0.3901957 	 6.2539457 	 570.0637 	 1.070 	 95.311
0.3939742 	 6.3905490 	 582.2487 	 1.071 	 95.283
0.3976946 	 6.5293675 	 593.9335 	 1.072 	 95.281
0.4013569 	 6.6693422 	 604.2683 	 1.072 	 95.261
0.4049613 	 6.8123931 	 615.0910 	 1.073 	 95.272
0.4085082 	 6.9548006 	 626.0905 	 1.073 	 95.228
0.4119971 	 7.0996785 	 634.1022 	 1.076 	 95.247
0.4154375 	 7.2436589 	 646.0799 	 1.075 	 95.223
0.4188240 	 7.3924126 	 660.0622 	 1.076 	 95.235
0.4221595 	 7.5409294 	 668.6154 	 1.076 	 95.214
0.4254458 	 7.6914531 	 682.1027 	 1.077 	 95.182
0.4286853 	 7.8399506 	 692.9236 	 1.077 	 95.212
0.4318752 	 7.9949578 	 702.3121 	 1.077 	 95.218
0.4350184 	 8.1477626 	 716.9726 	 1.078 	 95.185
0.4381172 	 8.3059077 	 726.6965 	 1.078 	 95.191
0.4411696 	 8.4646429 	 740.4077 	 1.079 	 95.201
0.4441812 	 8.6207597 	 750.9602 	 1.080 	 95.184
0.4471511 	 8.7810091 	 759.5203 	 1.081 	 95.154
0.4500802 	 8.9407831 	 776.0338 	 1.082 	 95.175
0.4529680 	 9.1027886 	 799.2981 	 1.080 	 95.136
0.4558138 	 9.2689469 	 815.4070 	 1.081 	 95.155
0.4586242 	 9.4324393 	 830.9542 	 1.082 	 95.153
0.4613976 	 9.5977695 	 844.1194 	 1.083 	 95.098
0.4641328 	 9.7664545 	 860.7611 	 1.083 	 95.127
0.4668318 	 9.9333317 	 871.9455 	 1.083 	 95.127
0.4694945 	 10.1047474 	 878.4462 	 1.083 	 95.129
0.4721218 	 10.2798012 	 885.3917 	 1.084 	 95.133
0.4747136 	 10.4521190 	 898.2944 	 1.084 	 95.099
0.4772721 	 10.6253836 	 910.5105 	 1.084 	 95.096
0.4797976 	 10.8010492 	 916.3667 	 1.084 	 95.094
0.4822945 	 10.9784989 	 925.4068 	 1.085 	 95.085
0.4847571 	 11.1572790 	 933.8733 	 1.084 	 95.057
0.4871895 	 11.3361293 	 949.0982 	 1.084 	 95.074
0.4895916 	 11.5208550 	 964.9838 	 1.084 	 95.070
0.4919649 	 11.7032738 	 981.4256 	 1.085 	 95.059
0.4943093 	 11.8870067 	 999.4721 	 1.085 	 95.067
0.4966243 	 12.0710975 	 1008.8902 	 1.085 	 95.047
0.4989117 	 12.2554224 	 1018.3727 	 1.085 	 95.049
0.5011733 	 12.4462159 	 1021.1193 	 1.086 	 95.044
0.5034049 	 12.6338432 	 1024.7928 	 1.086 	 95.022
0.5056115 	 12.8245194 	 1035.7519 	 1.086 	 95.037
0.5077911 	 13.0143172 	 1045.3121 	 1.087 	 95.025
0.5099453 	 13.2138523 	 1051.5015 	 1.087 	 95.031
0.5120753 	 13.4080378 	 1059.0979 	 1.087 	 95.012
0.5141792 	 13.5980667 	 1060.0048 	 1.086 	 95.003
0.5162600 	 13.7925001 	 1069.4194 	 1.087 	 95.022
0.5183182 	 13.9977977 	 1076.5928 	 1.087 	 95.019
0.5203511 	 14.1977098 	 1078.6554 	 1.087 	 94.996
0.5223629 	 14.3986686 	 1081.6068 	 1.088 	 95.004
0.5243500 	 14.6042046 	 1086.7604 	 1.088 	 95.002
0.5263166 	 14.8086396 	 1104.9488 	 1.088 	 94.983
0.5282622 	 15.0156752 	 1116.6597 	 1.088 	 94.979
0.5301848 	 15.2228900 	 1136.4537 	 1.088 	 94.962
0.5320862 	 15.4339430 	 1143.0969 	 1.088 	 94.973
0.5339667 	 15.6455060 	 1155.6083 	 1.088 	 94.954
0.5358275 	 15.8569041 	 1171.1546 	 1.088 	 94.983
0.5376664 	 16.0691979 	 1183.1562 	 1.087 	 94.942
0.5394880 	 16.2850031 	 1206.3932 	 1.088 	 94.947
0.5412886 	 16.5017700 	 1226.6044 	 1.088 	 94.944
0.5430703 	 16.7241132 	 1242.8472 	 1.088 	 94.955
0.5448333 	 16.9428676 	 1253.2005 	 1.088 	 94.942
0.5465758 	 17.1565802 	 1270.9901 	 1.087 	 94.904
0.5483012 	 17.3845506 	 1292.4030 	 1.087 	 94.925
0.5500070 	 17.6091560 	 1318.9810 	 1.087 	 94.918
0.5516975 	 17.8311745 	 1343.7781 	 1.086 	 94.902
0.5533695 	 18.0629274 	 1381.5531 	 1.085 	 94.925
0.5550245 	 18.2869792 	 1419.8684 	 1.085 	 94.898
0.5566635 	 18.5176790 	 1464.5844 	 1.085 	 94.882
0.5582851 	 18.7549310 	 1535.2223 	 1.084 	 94.908
0.5598898 	 18.9897170 	 1621.2027 	 1.084 	 94.876
0.5614778 	 19.2295726 	 1741.7211 	 1.083 	 94.903
0.5630490 	 19.4632433 	 1928.1690 	 1.081 	 94.881
0.5646048 	 19.7039117 	 2165.1066 	 1.081 	 94.884
0.5661452 	 19.9489194 	 2525.7583 	 1.079 	 94.893
0.5676700 	 20.1967420 	 3020.6203 	 1.077 	 94.902
0.5691787 	 20.4443067 	 3702.4025 	 1.075 	 94.889
0.5706720 	 20.6932012 	 4725.0968 	 1.072 	 94.896
0.5721508 	 20.9526212 	 5925.3034 	 1.071 	 94.883
0.5736149 	 21.2114498 	 7762.2167 	 1.068 	 94.895
0.5750639 	 21.4817409 	 9930.3233 	 1.067 	 94.906
0.5764971 	 21.7494194 	 12796.7536 	 1.064 	 94.900
0.5779153 	 22.0454735 	 16473.9501 	 1.061 	 94.934
0.5793162 	 22.3291481 	 20929.5814 	 1.058 	 94.908
0.5807017 	 22.6331435 	 25379.0702 	 1.056 	 94.926
0.5820710 	 22.9437906 	 30144.2080 	 1.055 	 94.913
0.5834225 	 23.2700811 	 35760.6907 	 1.053 	 94.924
0.5847589 	 23.5886670 	 41567.1146 	 1.051 	 94.905
0.5860786 	 23.9426874 	 47337.2599 	 1.050 	 94.920
0.5873802 	 24.3046659 	 53444.5311 	 1.049 	 94.932
0.5886645 	 24.6659130 	 57933.1690 	 1.050 	 94.921
0.5899317 	 25.0517767 	 63382.9539 	 1.051 	 94.907
0.5911803 	 25.4371432 	 67931.3172 	 1.051 	 94.892
0.5924125 	 25.8397818 	 72093.9298 	 1.053 	 94.882
0.5936274 	 26.2456632 	 76096.1007 	 1.055 	 94.877
0.5948242 	 26.6686329 	 80277.7146 	 1.058 	 94.826
0.5960046 	 27.0978278 	 84781.1933 	 1.061 	 94.819
0.5971668 	 27.5475239 	 89237.9546 	 1.064 	 94.792
0.5983116 	 27.9935269 	 94540.5758 	 1.066 	 94.772
0.5994400 	 28.4484633 	 99705.2698 	 1.071 	 94.749
0.6005505 	 28.9320073 	 105852.3435 	 1.073 	 94.760
0.6016446 	 29.4148163 	 112615.1373 	 1.078 	 94.738
0.6027221 	 29.9183160 	 119392.9398 	 1.082 	 94.734
0.6037818 	 30.4203380 	 128972.3674 	 1.086 	 94.724
0.6048250 	 30.9476505 	 137367.7634 	 1.090 	 94.704
0.6058532 	 31.4642269 	 148963.6205 	 1.094 	 94.683
0.6068645 	 32.0057279 	 161013.3343 	 1.098 	 94.660
0.6078607 	 32.5713709 	 174115.2351 	 1.102 	 94.675
0.6088413 	 33.1360481 	 187946.2778 	 1.106 	 94.678
0.6098051 	 33.7263243 	 202722.0662 	 1.111 	 94.656
0.6107526 	 34.3072918 	 217172.4217 	 1.116 	 94.624
0.6116851 	 34.9287093 	 233507.3479 	 1.120 	 94.632
0.6126020 	 35.5644905 	 250306.0408 	 1.124 	 94.627
0.6135027 	 36.2147731 	 267260.7919 	 1.129 	 94.617
0.6143894 	 36.8773298 	 283951.8968 	 1.133 	 94.618
0.6152596 	 37.5557483 	 299485.5980 	 1.137 	 94.599
0.6161159 	 38.2455229 	 317943.4818 	 1.140 	 94.579
0.6169570 	 38.9596208 	 333920.8694 	 1.144 	 94.588
0.6177830 	 39.6978069 	 351911.2097 	 1.147 	 94.607
0.6185949 	 40.4254108 	 370746.0638 	 1.150 	 94.540
0.6193925 	 41.1843813 	 387481.3918 	 1.153 	 94.545
0.6201763 	 41.9775312 	 404251.9036 	 1.156 	 94.573
0.6209463 	 42.7626032 	 420665.6286 	 1.158 	 94.538
0.6217022 	 43.5659181 	 438542.5971 	 1.159 	 94.523
0.6224443 	 44.4017738 	 451987.6849 	 1.161 	 94.563
0.6231733 	 45.2358019 	 463806.3807 	 1.162 	 94.502
0.6238888 	 46.1095108 	 474009.7724 	 1.163 	 94.523
0.6245918 	 46.9968275 	 483164.3781 	 1.163 	 94.546
0.6252822 	 47.8855390 	 489883.0685 	 1.162 	 94.538
0.6259601 	 48.7925076 	 496152.4740 	 1.161 	 94.502
0.6266260 	 49.7494848 	 502553.5281 	 1.160 	 94.550
0.6272797 	 50.6942986 	 506737.4086 	 1.158 	 94.493
0.6279210 	 51.6612212 	 507796.0933 	 1.156 	 94.504
0.6285507 	 52.6654910 	 505071.8195 	 1.153 	 94.523
0.6291689 	 53.6863082 	 502545.3323 	 1.150 	 94.537
0.6297754 	 54.7071877 	 495866.8429 	 1.145 	 94.532
