N=100 	 R=1000000 	 s=1 	 Save [density, Z, rho_t, like/unlike, events per sweep]
0.0001341 	 1.0005103 	 1.1027 	 0.999 	 10.124
0.0132625 	 1.1626521 	 12.2143 	 0.950 	 46.783
0.0260856 	 1.1527469 	 22.9761 	 1.005 	 78.934
0.0385180 	 1.1919196 	 33.4690 	 1.013 	 88.266
0.0505353 	 1.2396346 	 43.8964 	 1.017 	 91.994
0.0621783 	 1.2922079 	 54.2821 	 1.018 	 93.824
0.0734774 	 1.3483462 	 64.5914 	 1.019 	 94.779
0.0844353 	 1.4077075 	 74.8737 	 1.020 	 95.258
0.0950778 	 1.4695424 	 85.8375 	 1.021 	 95.510
0.1054209 	 1.5338684 	 96.1951 	 1.023 	 95.677
0.1154692 	 1.6002814 	 106.2200 	 1.023 	 95.747
0.1252307 	 1.6685337 	 117.1160 	 1.025 	 95.793
0.1347251 	 1.7386491 	 127.7282 	 1.026 	 95.781
0.1439554 	 1.8100767 	 137.0147 	 1.027 	 95.877
0.1529420 	 1.8841828 	 147.0492 	 1.028 	 95.888
0.1617070 	 1.9596027 	 156.4451 	 1.029 	 95.799
0.1702330 	 2.0368233 	 166.6559 	 1.031 	 95.777
0.1785386 	 2.1161180 	 175.8292 	 1.032 	 95.821
0.1866391 	 2.1963039 	 185.6134 	 1.034 	 95.783
0.1945475 	 2.2783026 	 196.6691 	 1.035 	 95.743
0.2022613 	 2.3623048 	 205.9282 	 1.036 	 95.743
0.2097848 	 2.4472452 	 216.0998 	 1.037 	 95.700
0.2171310 	 2.5340203 	 226.9617 	 1.039 	 95.680
0.2243001 	 2.6227947 	 235.5528 	 1.039 	 95.700
0.2313119 	 2.7126180 	 244.5332 	 1.040 	 95.681
0.2381592 	 2.8039208 	 255.8132 	 1.042 	 95.640
0.2448545 	 2.8967211 	 266.3840 	 1.043 	 95.615
0.2513986 	 2.9923361 	 277.9318 	 1.044 	 95.635
0.2578044 	 3.0878366 	 289.3286 	 1.045 	 95.616
0.2640654 	 3.1862979 	 300.6494 	 1.047 	 95.601
0.2701914 	 3.2849132 	 310.6100 	 1.048 	 95.571
0.2761936 	 3.3855872 	 319.9485 	 1.049 	 95.533
0.2820672 	 3.4880743 	 330.9363 	 1.049 	 95.524
0.2878207 	 3.5921343 	 338.5249 	 1.051 	 95.555
0.2934545 	 3.6977579 	 349.6182 	 1.052 	 95.527
0.2989810 	 3.8050870 	 359.7451 	 1.053 	 95.531
0.3043955 	 3.9133500 	 369.7734 	 1.054 	 95.513
0.3097027 	 4.0223069 	 378.1220 	 1.055 	 95.472
0.3149065 	 4.1340297 	 389.8940 	 1.056 	 95.472
0.3200074 	 4.2474279 	 396.4416 	 1.057 	 95.468
0.3250121 	 4.3622293 	 403.9215 	 1.058 	 95.484
0.3299233 	 4.4771007 	 415.3400 	 1.059 	 95.462
0.3347429 	 4.5949731 	 424.8101 	 1.060 	 95.437
0.3394771 	 4.7139254 	 436.7973 	 1.061 	 95.428
0.3441201 	 4.8333946 	 445.5866 	 1.061 	 95.392
0.3486832 	 4.9549799 	 459.5954 	 1.062 	 95.378
0.3531652 	 5.0789623 	 469.2271 	 1.064 	 95.382
0.3575677 	 5.2044249 	 480.4386 	 1.064 	 95.391
0.3618910 	 5.3289154 	 488.7438 	 1.065 	 95.352
0.3661429 	 5.4572137 	 500.8554 	 1.066 	 95.374
0.3703217 	 5.5862557 	 511.3776 	 1.067 	 95.353
0.3744290 	 5.7170104 	 520.5995 	 1.068 	 95.340
0.3784681 	 5.8494516 	 531.7378 	 1.068 	 95.361
0.3824365 	 5.9831092 	 539.3809 	 1.069 	 95.315
0.3863411 	 6.1162555 	 550.4058 	 1.071 	 95.309
0.3901864 	 6.2525484 	 560.3831 	 1.070 	 95.287
0.3939650 	 6.3909831 	 570.9898 	 1.072 	 95.313
0.3976816 	 6.5286924 	 585.0763 	 1.072 	 95.278
0.4013413 	 6.6703048 	 596.7883 	 1.072 	 95.313
0.4049431 	 6.8098175 	 604.8481 	 1.073 	 95.243
0.4084894 	 6.9554658 	 611.2196 	 1.074 	 95.269
0.4119812 	 7.0976742 	 626.4096 	 1.074 	 95.243
0.4154213 	 7.2435242 	 640.9531 	 1.075 	 95.229
0.4188080 	 7.3913815 	 653.5328 	 1.075 	 95.216
0.4221439 	 7.5395734 	 664.6125 	 1.076 	 95.205
0.4254283 	 7.6899799 	 679.8635 	 1.077 	 95.206
0.4286647 	 7.8411855 	 693.6540 	 1.077 	 95.197
0.4318541 	 7.9933903 	 702.3574 	 1.078 	 95.190
0.4349960 	 8.1479175 	 709.3525 	 1.078 	 95.179
0.4380933 	 8.3050841 	 722.5943 	 1.079 	 95.191
0.4411478 	 8.4599464 	 731.9620 	 1.079 	 95.167
0.4441589 	 8.6187628 	 747.4081 	 1.079 	 95.148
0.4471301 	 8.7800908 	 749.7948 	 1.080 	 95.171
0.4500561 	 8.9405417 	 761.7304 	 1.081 	 95.169
0.4529439 	 9.1035780 	 768.3135 	 1.081 	 95.179
0.4557925 	 9.2662275 	 780.1136 	 1.081 	 95.152
0.4585997 	 9.4315150 	 795.7893 	 1.082 	 95.146
0.4613701 	 9.5982424 	 809.9697 	 1.083 	 95.101
0.4641056 	 9.7648894 	 820.2924 	 1.082 	 95.138
0.4668031 	 9.9319839 	 829.7387 	 1.084 	 95.115
0.4694665 	 10.1038209 	 841.6171 	 1.084 	 95.083
0.4720948 	 10.2749146 	 860.0586 	 1.083 	 95.117
0.4746859 	 10.4490940 	 869.5077 	 1.084 	 95.096
0.4772442 	 10.6243158 	 882.3818 	 1.084 	 95.104
0.4797718 	 10.7977206 	 890.4823 	 1.085 	 95.104
0.4822689 	 10.9758417 	 903.9891 	 1.084 	 95.089
0.4847320 	 11.1587829 	 924.7458 	 1.085 	 95.087
0.4871658 	 11.3359588 	 943.7536 	 1.085 	 95.079
0.4895692 	 11.5150397 	 954.4823 	 1.086 	 95.058
0.4919410 	 11.6969050 	 967.6687 	 1.085 	 95.038
0.4942841 	 11.8800123 	 983.6880 	 1.086 	 95.045
0.4965997 	 12.0690493 	 984.7028 	 1.086 	 95.075
0.4988886 	 12.2552698 	 993.1132 	 1.086 	 95.047
0.5011487 	 12.4424776 	 990.6040 	 1.087 	 95.042
0.5033826 	 12.6323095 	 989.8359 	 1.087 	 95.047
0.5055892 	 12.8228809 	 1004.4033 	 1.088 	 95.053
0.5077696 	 13.0138045 	 1017.7662 	 1.088 	 95.045
0.5099253 	 13.2109634 	 1011.1455 	 1.088 	 95.036
0.5120545 	 13.4035300 	 1029.0177 	 1.087 	 95.007
0.5141596 	 13.5984393 	 1032.7777 	 1.088 	 95.013
0.5162417 	 13.7948246 	 1042.2576 	 1.087 	 95.002
0.5182984 	 13.9977312 	 1049.5350 	 1.087 	 95.025
0.5203313 	 14.1933745 	 1056.0000 	 1.088 	 95.021
0.5223429 	 14.4007589 	 1066.2257 	 1.088 	 95.006
0.5243318 	 14.6030347 	 1085.0263 	 1.088 	 94.979
0.5262985 	 14.8090055 	 1098.3587 	 1.088 	 94.981
0.5282425 	 15.0144252 	 1110.3144 	 1.088 	 94.980
0.5301655 	 15.2172285 	 1121.8640 	 1.088 	 94.953
0.5320667 	 15.4314163 	 1130.5145 	 1.088 	 94.987
0.5339462 	 15.6431113 	 1145.5647 	 1.089 	 94.949
0.5358063 	 15.8515174 	 1176.8349 	 1.088 	 94.955
0.5376472 	 16.0687686 	 1185.0615 	 1.088 	 94.964
0.5394675 	 16.2878651 	 1206.5032 	 1.088 	 94.969
0.5412681 	 16.5031580 	 1232.1115 	 1.087 	 94.926
0.5430502 	 16.7208976 	 1255.3105 	 1.088 	 94.942
0.5448131 	 16.9406625 	 1253.5681 	 1.088 	 94.956
0.5465582 	 17.1607030 	 1279.1076 	 1.087 	 94.942
0.5482831 	 17.3782261 	 1299.2101 	 1.086 	 94.946
0.5499906 	 17.6047968 	 1336.6828 	 1.086 	 94.942
0.5516817 	 17.8269753 	 1368.2950 	 1.086 	 94.906
0.5533556 	 18.0588967 	 1410.2276 	 1.086 	 94.909
0.5550111 	 18.2830676 	 1461.7146 	 1.085 	 94.896
0.5566489 	 18.5134300 	 1544.8424 	 1.084 	 94.900
0.5582718 	 18.7454272 	 1629.0574 	 1.084 	 94.886
0.5598765 	 18.9770738 	 1752.9633 	 1.083 	 94.865
0.5614656 	 19.2164832 	 1927.5623 	 1.082 	 94.902
0.5630398 	 19.4541598 	 2180.5012 	 1.081 	 94.893
0.5645973 	 19.6993006 	 2557.1492 	 1.080 	 94.916
0.5661382 	 19.9348937 	 3086.9591 	 1.080 	 94.860
0.5676642 	 20.1831675 	 3867.7278 	 1.079 	 94.868
0.5691737 	 20.4339794 	 4983.9821 	 1.077 	 94.849
0.5706675 	 20.6848041 	 6785.1749 	 1.075 	 94.845
0.5721470 	 20.9386002 	 9363.1828 	 1.072 	 94.836
0.5736112 	 21.1963195 	 12813.0844 	 1.070 	 94.854
0.5750582 	 21.4664464 	 17761.6730 	 1.069 	 94.850
0.5764927 	 21.7376350 	 24053.5064 	 1.066 	 94.835
0.5779106 	 22.0235511 	 31655.4491 	 1.063 	 94.839
0.5793132 	 22.3151110 	 40997.4343 	 1.061 	 94.816
0.5806994 	 22.6173804 	 52483.7625 	 1.059 	 94.812
0.5820690 	 22.9336380 	 63838.3317 	 1.058 	 94.781
0.5834227 	 23.2609485 	 75830.4222 	 1.057 	 94.784
0.5847577 	 23.6032054 	 87891.3552 	 1.056 	 94.764
0.5860759 	 23.9536430 	 102077.4970 	 1.055 	 94.727
0.5873761 	 24.3261704 	 112887.4692 	 1.054 	 94.719
0.5886583 	 24.7072868 	 122815.9496 	 1.055 	 94.725
0.5899220 	 25.1028588 	 131618.6556 	 1.055 	 94.702
0.5911687 	 25.5150729 	 138514.8272 	 1.057 	 94.694
0.5923967 	 25.9418760 	 143715.0515 	 1.059 	 94.681
0.5936070 	 26.3726114 	 147421.8690 	 1.062 	 94.691
0.5947972 	 26.8206164 	 150499.6051 	 1.064 	 94.669
0.5959698 	 27.2715931 	 151168.4930 	 1.067 	 94.628
0.5971243 	 27.7360106 	 150816.4304 	 1.070 	 94.574
0.5982600 	 28.2230859 	 148469.4887 	 1.074 	 94.595
0.5993780 	 28.7159375 	 146249.4613 	 1.077 	 94.573
0.6004778 	 29.2031866 	 141501.4551 	 1.082 	 94.532
0.6015611 	 29.7229083 	 137308.2957 	 1.086 	 94.518
0.6026275 	 30.2330187 	 133033.1541 	 1.090 	 94.507
0.6036758 	 30.7655177 	 127621.7110 	 1.095 	 94.473
0.6047071 	 31.3248892 	 122954.8941 	 1.099 	 94.516
0.6057211 	 31.8664285 	 119042.9938 	 1.103 	 94.486
0.6067198 	 32.4322921 	 115196.8782 	 1.106 	 94.470
0.6077017 	 32.9995855 	 111196.8432 	 1.111 	 94.471
0.6086675 	 33.5900526 	 106137.8687 	 1.112 	 94.502
0.6096180 	 34.1663041 	 101919.9546 	 1.115 	 94.465
0.6105526 	 34.7553347 	 99356.3498 	 1.117 	 94.451
0.6114726 	 35.3576854 	 96600.7882 	 1.118 	 94.472
0.6123788 	 35.9669084 	 94884.0898 	 1.119 	 94.486
0.6132699 	 36.5757055 	 93376.2315 	 1.120 	 94.463
0.6141472 	 37.2121225 	 92795.4736 	 1.119 	 94.502
0.6150102 	 37.8342401 	 93496.2208 	 1.120 	 94.472
0.6158604 	 38.4752469 	 95774.6890 	 1.120 	 94.486
0.6166962 	 39.1433359 	 98517.4735 	 1.120 	 94.521
0.6175186 	 39.8146930 	 102560.8356 	 1.120 	 94.514
0.6183280 	 40.4956011 	 106948.7559 	 1.118 	 94.560
0.6191248 	 41.2013571 	 112311.3815 	 1.118 	 94.567
0.6199083 	 41.9247832 	 116847.8279 	 1.118 	 94.596
0.6206792 	 42.6381082 	 122393.4104 	 1.116 	 94.563
0.6214373 	 43.3698536 	 128032.6346 	 1.117 	 94.567
0.6221835 	 44.1130207 	 133711.5665 	 1.117 	 94.567
0.6229178 	 44.8670307 	 140596.4962 	 1.119 	 94.621
0.6236398 	 45.6505349 	 147390.8164 	 1.119 	 94.618
0.6243505 	 46.4237924 	 154082.1007 	 1.122 	 94.636
0.6250504 	 47.2154136 	 162127.6872 	 1.124 	 94.648
0.6257380 	 48.0229051 	 171631.8009 	 1.128 	 94.642
0.6264158 	 48.8443429 	 183745.6629 	 1.133 	 94.647
0.6270816 	 49.6452644 	 198425.9769 	 1.138 	 94.657
0.6277370 	 50.4750226 	 215022.8774 	 1.145 	 94.688
0.6283829 	 51.3116011 	 236207.4384 	 1.151 	 94.677
0.6290184 	 52.1556775 	 258718.2862 	 1.157 	 94.664
0.6296444 	 53.0416782 	 283366.8075 	 1.164 	 94.646
