N=100 	 R=1000000 	 s=1 	 Save [density, Z, rho_t, like/unlike, events per sweep]
0.0001344 	 1.0005117 	 1.1025 	 1.007 	 10.125
0.0132551 	 1.1626172 	 12.1675 	 0.951 	 46.805
0.0260869 	 1.1528890 	 22.8313 	 1.004 	 78.922
0.0385108 	 1.1918607 	 33.6898 	 1.013 	 88.253
0.0505298 	 1.2396087 	 44.0946 	 1.016 	 92.025
0.0621817 	 1.2922988 	 54.9709 	 1.018 	 93.810
0.0734919 	 1.3483175 	 65.1497 	 1.019 	 94.751
0.0844488 	 1.4076649 	 75.4482 	 1.020 	 95.234
0.0950899 	 1.4696914 	 85.6014 	 1.021 	 95.522
0.1054267 	 1.5338199 	 96.0292 	 1.022 	 95.664
0.1154683 	 1.6001433 	 106.6510 	 1.023 	 95.747
0.1252381 	 1.6686018 	 117.3328 	 1.024 	 95.793
0.1347349 	 1.7388602 	 128.4633 	 1.026 	 95.851
0.1439738 	 1.8104341 	 138.1159 	 1.027 	 95.880
0.1529677 	 1.8840870 	 148.3329 	 1.029 	 95.835
0.1617224 	 1.9598013 	 157.7916 	 1.030 	 95.839
0.1702506 	 2.0369690 	 168.1194 	 1.031 	 95.790
0.1785552 	 2.1159643 	 179.5487 	 1.033 	 95.798
0.1866587 	 2.1962713 	 189.6889 	 1.034 	 95.743
0.1945600 	 2.2785197 	 201.6693 	 1.035 	 95.737
0.2022705 	 2.3622852 	 213.2742 	 1.036 	 95.751
0.2097956 	 2.4471093 	 224.7017 	 1.037 	 95.697
0.2171399 	 2.5343024 	 233.2846 	 1.039 	 95.691
0.2243145 	 2.6227576 	 241.9990 	 1.040 	 95.682
0.2313218 	 2.7127553 	 252.0390 	 1.041 	 95.672
0.2381752 	 2.8041844 	 263.6423 	 1.042 	 95.634
0.2448704 	 2.8974725 	 275.2904 	 1.044 	 95.649
0.2514179 	 2.9924660 	 284.0391 	 1.045 	 95.624
0.2578169 	 3.0884337 	 293.6582 	 1.045 	 95.601
0.2640816 	 3.1864882 	 302.8990 	 1.048 	 95.610
0.2702055 	 3.2855001 	 313.3818 	 1.047 	 95.598
0.2762036 	 3.3865776 	 323.6046 	 1.049 	 95.592
0.2820816 	 3.4884128 	 334.6709 	 1.050 	 95.546
0.2878387 	 3.5929567 	 345.8569 	 1.050 	 95.568
0.2934742 	 3.6983872 	 356.9294 	 1.052 	 95.521
0.2989989 	 3.8047488 	 366.5079 	 1.053 	 95.505
0.3044140 	 3.9139915 	 377.8565 	 1.054 	 95.523
0.3097196 	 4.0230711 	 386.3586 	 1.055 	 95.485
0.3149231 	 4.1349441 	 395.9529 	 1.056 	 95.488
0.3200286 	 4.2471360 	 405.1228 	 1.056 	 95.447
0.3250337 	 4.3617464 	 417.3185 	 1.058 	 95.456
0.3299426 	 4.4787014 	 428.9827 	 1.058 	 95.454
0.3347630 	 4.5942558 	 438.2756 	 1.060 	 95.418
0.3394954 	 4.7137006 	 450.3326 	 1.061 	 95.398
0.3441408 	 4.8344520 	 463.5138 	 1.061 	 95.412
0.3487040 	 4.9567001 	 473.8156 	 1.062 	 95.406
0.3531860 	 5.0795023 	 483.7581 	 1.063 	 95.399
0.3575866 	 5.2050402 	 496.7554 	 1.064 	 95.379
0.3619117 	 5.3292553 	 507.7920 	 1.065 	 95.372
0.3661650 	 5.4564741 	 519.7158 	 1.065 	 95.339
0.3703425 	 5.5863143 	 536.1555 	 1.067 	 95.351
0.3744496 	 5.7167539 	 548.2474 	 1.067 	 95.337
0.3784858 	 5.8486385 	 560.1218 	 1.068 	 95.332
0.3824571 	 5.9834076 	 571.5342 	 1.068 	 95.342
0.3863612 	 6.1186335 	 583.2984 	 1.069 	 95.341
0.3902019 	 6.2529689 	 595.6792 	 1.071 	 95.295
0.3939813 	 6.3899606 	 606.5784 	 1.071 	 95.285
0.3977010 	 6.5296030 	 614.6981 	 1.071 	 95.293
0.4013638 	 6.6696975 	 625.1205 	 1.072 	 95.250
0.4049663 	 6.8118429 	 628.1876 	 1.072 	 95.261
0.4085099 	 6.9552689 	 634.0220 	 1.073 	 95.268
0.4120000 	 7.1001068 	 646.9638 	 1.074 	 95.277
0.4154398 	 7.2443754 	 660.5601 	 1.074 	 95.232
0.4188260 	 7.3930648 	 670.1107 	 1.075 	 95.248
0.4221624 	 7.5428646 	 679.8519 	 1.077 	 95.241
0.4254485 	 7.6919979 	 694.7790 	 1.077 	 95.252
0.4286836 	 7.8417992 	 706.6471 	 1.077 	 95.182
0.4318733 	 7.9953325 	 717.4617 	 1.077 	 95.216
0.4350174 	 8.1508419 	 732.0486 	 1.077 	 95.199
0.4381173 	 8.3059406 	 740.1506 	 1.079 	 95.183
0.4411718 	 8.4632882 	 752.8392 	 1.079 	 95.186
0.4441833 	 8.6208291 	 766.1839 	 1.080 	 95.160
0.4471513 	 8.7811037 	 775.3864 	 1.080 	 95.152
0.4500778 	 8.9417838 	 790.3608 	 1.080 	 95.160
0.4529636 	 9.1046163 	 796.0228 	 1.080 	 95.176
0.4558114 	 9.2669313 	 808.4286 	 1.081 	 95.140
0.4586202 	 9.4308524 	 817.1277 	 1.082 	 95.119
0.4613887 	 9.5961018 	 825.7765 	 1.082 	 95.134
0.4641236 	 9.7683342 	 837.4140 	 1.082 	 95.142
0.4668211 	 9.9355108 	 847.0614 	 1.084 	 95.131
0.4694833 	 10.1059391 	 860.8411 	 1.084 	 95.128
0.4721102 	 10.2784459 	 871.1123 	 1.084 	 95.132
0.4747051 	 10.4511994 	 877.5320 	 1.085 	 95.116
0.4772657 	 10.6242780 	 892.4513 	 1.085 	 95.113
0.4797926 	 10.7982952 	 903.5176 	 1.084 	 95.089
0.4822873 	 10.9765144 	 911.8624 	 1.084 	 95.106
0.4847519 	 11.1553570 	 919.1540 	 1.084 	 95.075
0.4871857 	 11.3338909 	 929.5936 	 1.084 	 95.044
0.4895884 	 11.5185259 	 940.5146 	 1.085 	 95.060
0.4919619 	 11.7020000 	 950.6496 	 1.085 	 95.069
0.4943064 	 11.8852721 	 957.2980 	 1.085 	 95.066
0.4966214 	 12.0665964 	 967.7360 	 1.086 	 95.064
0.4989096 	 12.2566724 	 979.0809 	 1.086 	 95.061
0.5011707 	 12.4442734 	 981.7436 	 1.086 	 95.040
0.5034036 	 12.6354069 	 992.7763 	 1.087 	 95.039
0.5056072 	 12.8259214 	 998.8134 	 1.087 	 95.025
0.5077880 	 13.0165313 	 1013.9991 	 1.087 	 94.999
0.5099430 	 13.2083295 	 1019.7248 	 1.087 	 95.054
0.5120711 	 13.4048500 	 1030.5820 	 1.088 	 95.024
0.5141769 	 13.5996046 	 1037.7511 	 1.087 	 95.032
0.5162570 	 13.7982952 	 1048.2975 	 1.086 	 95.023
0.5183136 	 13.9973508 	 1058.3372 	 1.087 	 94.987
0.5203477 	 14.2008480 	 1078.7773 	 1.088 	 95.010
0.5223599 	 14.4023420 	 1089.3126 	 1.087 	 94.989
0.5243486 	 14.6047453 	 1092.4953 	 1.087 	 94.998
0.5263147 	 14.8120177 	 1109.9163 	 1.087 	 94.979
0.5282591 	 15.0173062 	 1120.7601 	 1.086 	 94.970
0.5301818 	 15.2208088 	 1139.7597 	 1.087 	 94.931
0.5320833 	 15.4316168 	 1156.6010 	 1.088 	 94.978
0.5339649 	 15.6424386 	 1176.9018 	 1.088 	 94.963
0.5358264 	 15.8553360 	 1185.9813 	 1.088 	 94.975
0.5376687 	 16.0641269 	 1195.5588 	 1.088 	 94.957
0.5394891 	 16.2813516 	 1213.0338 	 1.088 	 94.972
0.5412900 	 16.4960635 	 1251.4143 	 1.089 	 94.973
0.5430729 	 16.7140617 	 1274.6021 	 1.089 	 94.950
0.5448353 	 16.9330165 	 1287.6941 	 1.088 	 94.946
0.5465799 	 17.1537376 	 1296.6463 	 1.088 	 94.906
0.5483072 	 17.3790906 	 1320.2493 	 1.089 	 94.954
0.5500159 	 17.5923879 	 1357.4264 	 1.087 	 94.905
0.5517064 	 17.8195669 	 1394.2168 	 1.088 	 94.937
0.5533792 	 18.0428927 	 1444.2473 	 1.087 	 94.921
0.5550367 	 18.2744721 	 1517.0939 	 1.087 	 94.910
0.5566766 	 18.5013241 	 1621.3446 	 1.087 	 94.898
0.5583014 	 18.7229268 	 1750.4003 	 1.087 	 94.899
0.5599085 	 18.9485101 	 1957.9667 	 1.087 	 94.875
0.5614998 	 19.1842282 	 2318.0647 	 1.088 	 94.897
0.5630751 	 19.4123078 	 2779.0203 	 1.087 	 94.886
0.5646356 	 19.6374573 	 3491.8627 	 1.087 	 94.851
0.5661810 	 19.8652490 	 4590.7391 	 1.085 	 94.880
0.5677125 	 20.1038783 	 6020.9692 	 1.085 	 94.872
0.5692310 	 20.3328638 	 7976.2410 	 1.084 	 94.873
0.5707352 	 20.5727064 	 10560.6483 	 1.083 	 94.868
0.5722243 	 20.8082875 	 14080.5603 	 1.082 	 94.880
0.5736980 	 21.0506006 	 18389.6144 	 1.081 	 94.877
0.5751588 	 21.2982444 	 23301.2214 	 1.080 	 94.891
0.5766046 	 21.5536621 	 29298.4277 	 1.079 	 94.877
0.5780366 	 21.8262318 	 35308.4380 	 1.078 	 94.858
0.5794533 	 22.1061996 	 42002.8998 	 1.077 	 94.885
0.5808528 	 22.4039747 	 48662.0078 	 1.075 	 94.882
0.5822370 	 22.7125010 	 55702.5896 	 1.074 	 94.889
0.5836040 	 23.0488275 	 62902.9909 	 1.073 	 94.894
0.5849531 	 23.3910772 	 70107.1636 	 1.073 	 94.899
0.5862840 	 23.7555387 	 76700.2568 	 1.072 	 94.901
0.5875968 	 24.1271385 	 83619.1958 	 1.072 	 94.900
0.5888908 	 24.5176433 	 90647.8918 	 1.072 	 94.911
0.5901657 	 24.9159857 	 96911.1194 	 1.072 	 94.893
0.5914211 	 25.3280818 	 103636.0973 	 1.072 	 94.928
0.5926586 	 25.7511952 	 111084.0264 	 1.072 	 94.892
0.5938776 	 26.1925288 	 118846.0001 	 1.073 	 94.911
0.5950781 	 26.6411743 	 128405.0244 	 1.074 	 94.942
0.5962598 	 27.1022742 	 137390.4833 	 1.074 	 94.948
0.5974234 	 27.5561057 	 148389.6758 	 1.074 	 94.936
0.5985682 	 28.0362070 	 161243.6124 	 1.074 	 94.947
0.5996951 	 28.5107708 	 175631.2679 	 1.075 	 94.983
0.6008038 	 28.9959217 	 189991.0221 	 1.074 	 95.006
0.6018962 	 29.4867623 	 206205.8233 	 1.075 	 94.999
0.6029716 	 29.9755861 	 223623.9436 	 1.074 	 95.043
0.6040304 	 30.4780265 	 242068.0924 	 1.075 	 95.052
0.6050733 	 30.9622675 	 264597.6002 	 1.074 	 95.057
0.6061011 	 31.4818171 	 289235.3376 	 1.074 	 95.166
0.6071133 	 31.9837279 	 316755.8056 	 1.073 	 95.175
0.6081115 	 32.4693341 	 347633.1469 	 1.073 	 95.211
0.6090954 	 32.9867519 	 382035.3406 	 1.073 	 95.263
0.6100651 	 33.4856791 	 415474.5410 	 1.072 	 95.297
0.6110212 	 33.9973695 	 453779.3954 	 1.073 	 95.321
0.6119647 	 34.5249806 	 488876.1336 	 1.073 	 95.361
0.6128939 	 35.0762995 	 522105.3135 	 1.074 	 95.384
0.6138098 	 35.6426231 	 554198.9981 	 1.076 	 95.426
0.6147113 	 36.2402435 	 585511.8419 	 1.076 	 95.417
0.6155992 	 36.8450177 	 620056.8747 	 1.079 	 95.431
0.6164733 	 37.4898006 	 650417.6420 	 1.081 	 95.464
0.6173332 	 38.1473062 	 679953.6735 	 1.083 	 95.456
0.6181781 	 38.8344347 	 706481.9647 	 1.085 	 95.468
0.6190088 	 39.5506258 	 730539.2159 	 1.088 	 95.466
0.6198255 	 40.2818265 	 754501.2421 	 1.091 	 95.446
0.6206268 	 41.0434152 	 774171.9964 	 1.093 	 95.460
0.6214147 	 41.8372550 	 794434.9647 	 1.096 	 95.463
0.6221888 	 42.6214191 	 813001.7046 	 1.099 	 95.432
0.6229491 	 43.4306611 	 832259.9979 	 1.101 	 95.418
0.6236953 	 44.2749450 	 850917.0929 	 1.103 	 95.403
0.6244273 	 45.1294850 	 864636.8569 	 1.106 	 95.398
0.6251466 	 46.0222591 	 880465.0532 	 1.108 	 95.426
0.6258522 	 46.9117066 	 892770.9288 	 1.109 	 95.388
0.6265449 	 47.8400987 	 906641.0776 	 1.111 	 95.420
0.6272249 	 48.7474335 	 918511.5845 	 1.113 	 95.353
0.6278917 	 49.7213664 	 928846.6712 	 1.115 	 95.353
0.6285463 	 50.7020247 	 939024.0789 	 1.116 	 95.370
0.6291889 	 51.7066813 	 948379.1793 	 1.118 	 95.334
0.6298197 	 52.7267706 	 955364.3614 	 1.118 	 95.342
