N=100 	 R=1000000 	 s=1 	 Save [density, Z, rho_t, like/unlike, events per sweep]
0.0001343 	 1.0005104 	 1.1027 	 1.008 	 10.124
0.0132533 	 1.1627084 	 12.1866 	 0.950 	 46.742
0.0260651 	 1.1527834 	 22.9750 	 1.005 	 78.911
0.0384802 	 1.1917840 	 33.3963 	 1.014 	 88.245
0.0504976 	 1.2394877 	 43.9076 	 1.016 	 92.024
0.0621359 	 1.2920246 	 54.1538 	 1.017 	 93.820
0.0734361 	 1.3480299 	 64.2865 	 1.019 	 94.764
0.0843933 	 1.4073852 	 74.8038 	 1.020 	 95.235
0.0950402 	 1.4693857 	 85.3193 	 1.021 	 95.503
0.1053798 	 1.5334562 	 95.6196 	 1.022 	 95.662
0.1154156 	 1.5997901 	 106.4642 	 1.023 	 95.722
0.1251837 	 1.6682020 	 117.8035 	 1.025 	 95.789
0.1346794 	 1.7385543 	 127.7841 	 1.026 	 95.824
0.1439152 	 1.8100686 	 139.3384 	 1.027 	 95.890
0.1529143 	 1.8840167 	 150.5153 	 1.029 	 95.849
0.1616696 	 1.9594301 	 161.2213 	 1.030 	 95.847
0.1701970 	 2.0366037 	 170.6077 	 1.031 	 95.805
0.1785139 	 2.1154735 	 180.4670 	 1.032 	 95.788
0.1866130 	 2.1958393 	 190.9266 	 1.033 	 95.763
0.1945221 	 2.2783160 	 201.7878 	 1.035 	 95.751
0.2022323 	 2.3619810 	 212.5455 	 1.036 	 95.739
0.2097604 	 2.4469697 	 223.2111 	 1.037 	 95.696
0.2171094 	 2.5336705 	 234.4711 	 1.038 	 95.706
0.2242866 	 2.6225909 	 246.3910 	 1.040 	 95.695
0.2312970 	 2.7124201 	 258.9540 	 1.041 	 95.655
0.2381480 	 2.8044070 	 270.2336 	 1.042 	 95.663
0.2448416 	 2.8968310 	 282.8006 	 1.043 	 95.636
0.2513894 	 2.9920105 	 293.7440 	 1.044 	 95.640
0.2577874 	 3.0882000 	 305.8901 	 1.046 	 95.627
0.2640500 	 3.1861585 	 315.6484 	 1.047 	 95.608
0.2701779 	 3.2851967 	 323.9965 	 1.047 	 95.592
0.2761761 	 3.3863634 	 333.5837 	 1.049 	 95.589
0.2820551 	 3.4882769 	 341.5134 	 1.050 	 95.566
0.2878090 	 3.5920166 	 351.9767 	 1.051 	 95.538
0.2934472 	 3.6979573 	 361.5674 	 1.052 	 95.507
0.2989701 	 3.8042246 	 371.7595 	 1.053 	 95.508
0.3043899 	 3.9132925 	 380.3734 	 1.054 	 95.502
0.3096954 	 4.0226562 	 387.0556 	 1.054 	 95.481
0.3149049 	 4.1339414 	 399.1173 	 1.055 	 95.495
0.3200048 	 4.2471264 	 408.3606 	 1.056 	 95.485
0.3250117 	 4.3619423 	 414.6156 	 1.058 	 95.460
0.3299250 	 4.4777501 	 423.2282 	 1.058 	 95.443
0.3347489 	 4.5947372 	 434.1065 	 1.059 	 95.421
0.3394811 	 4.7145345 	 445.6742 	 1.061 	 95.449
0.3441257 	 4.8345790 	 455.3012 	 1.062 	 95.424
0.3486923 	 4.9564002 	 463.6759 	 1.062 	 95.402
0.3531760 	 5.0781602 	 471.4056 	 1.063 	 95.367
0.3575757 	 5.2037175 	 480.7150 	 1.064 	 95.388
0.3619001 	 5.3296035 	 487.6778 	 1.065 	 95.373
0.3661519 	 5.4573392 	 495.3289 	 1.066 	 95.368
0.3703280 	 5.5860760 	 508.8614 	 1.066 	 95.349
0.3744356 	 5.7174312 	 519.6452 	 1.067 	 95.362
0.3784717 	 5.8485479 	 528.3059 	 1.068 	 95.349
0.3824429 	 5.9816547 	 531.7108 	 1.069 	 95.318
0.3863486 	 6.1168919 	 538.7753 	 1.069 	 95.299
0.3901903 	 6.2532881 	 550.6310 	 1.071 	 95.296
0.3939704 	 6.3893611 	 564.4947 	 1.071 	 95.301
0.3976915 	 6.5298989 	 569.5639 	 1.072 	 95.284
0.4013511 	 6.6702506 	 575.1709 	 1.072 	 95.270
0.4049543 	 6.8108780 	 588.8361 	 1.073 	 95.264
0.4084992 	 6.9535037 	 599.9494 	 1.073 	 95.239
0.4119905 	 7.0993290 	 611.7440 	 1.074 	 95.266
0.4154294 	 7.2449768 	 623.0854 	 1.074 	 95.220
0.4188135 	 7.3922436 	 627.4690 	 1.076 	 95.236
0.4221485 	 7.5413209 	 641.4638 	 1.076 	 95.233
0.4254348 	 7.6892148 	 647.3311 	 1.076 	 95.201
0.4286719 	 7.8429892 	 657.2899 	 1.077 	 95.213
0.4318603 	 7.9941304 	 668.5759 	 1.077 	 95.203
0.4350063 	 8.1492921 	 677.0562 	 1.078 	 95.198
0.4381054 	 8.3056968 	 686.2835 	 1.079 	 95.196
0.4411615 	 8.4624180 	 700.0562 	 1.080 	 95.201
0.4441703 	 8.6200374 	 712.3510 	 1.080 	 95.174
0.4471413 	 8.7811943 	 727.7114 	 1.081 	 95.206
0.4500672 	 8.9401155 	 739.5778 	 1.080 	 95.137
0.4529560 	 9.1044771 	 744.7024 	 1.081 	 95.150
0.4558045 	 9.2672409 	 754.7378 	 1.082 	 95.155
0.4586135 	 9.4342068 	 761.0322 	 1.082 	 95.149
0.4613838 	 9.5997896 	 763.8378 	 1.083 	 95.138
0.4641176 	 9.7631870 	 773.2569 	 1.083 	 95.117
0.4668145 	 9.9336701 	 782.0711 	 1.083 	 95.108
0.4694780 	 10.1044447 	 791.0987 	 1.083 	 95.133
0.4721063 	 10.2797315 	 796.5792 	 1.084 	 95.104
0.4746999 	 10.4509939 	 805.6685 	 1.084 	 95.091
0.4772598 	 10.6253215 	 817.1805 	 1.084 	 95.088
0.4797867 	 10.8005057 	 828.4623 	 1.085 	 95.097
0.4822827 	 10.9781661 	 835.4353 	 1.085 	 95.096
0.4847467 	 11.1554102 	 851.4974 	 1.085 	 95.069
0.4871793 	 11.3366660 	 858.0742 	 1.085 	 95.072
0.4895801 	 11.5171981 	 870.0594 	 1.085 	 95.058
0.4919531 	 11.6980744 	 878.1895 	 1.085 	 95.077
0.4942979 	 11.8834866 	 887.5366 	 1.086 	 95.063
0.4966126 	 12.0697259 	 899.3413 	 1.086 	 95.062
0.4989005 	 12.2545178 	 916.6666 	 1.086 	 95.047
0.5011616 	 12.4430434 	 924.2273 	 1.086 	 95.060
0.5033955 	 12.6314627 	 933.5919 	 1.086 	 95.039
0.5056024 	 12.8264337 	 941.9419 	 1.087 	 95.045
0.5077832 	 13.0136896 	 948.7834 	 1.087 	 95.034
0.5099377 	 13.2103799 	 957.2430 	 1.087 	 95.036
0.5120685 	 13.4012270 	 963.0654 	 1.086 	 95.008
0.5141746 	 13.6010160 	 969.4429 	 1.086 	 94.997
0.5162569 	 13.7975119 	 987.4462 	 1.087 	 95.011
0.5183131 	 13.9972543 	 1000.9133 	 1.087 	 95.015
0.5203457 	 14.1976768 	 1011.3517 	 1.087 	 94.996
0.5223558 	 14.4004870 	 1019.3764 	 1.087 	 94.984
0.5243453 	 14.6023435 	 1032.3201 	 1.087 	 94.986
0.5263094 	 14.8079126 	 1031.3351 	 1.086 	 95.000
0.5282551 	 15.0117696 	 1051.3969 	 1.087 	 94.985
0.5301779 	 15.2256891 	 1059.7257 	 1.088 	 94.998
0.5320805 	 15.4309440 	 1069.3194 	 1.088 	 94.969
0.5339608 	 15.6472518 	 1082.9426 	 1.089 	 94.985
0.5358200 	 15.8560440 	 1091.9035 	 1.089 	 94.963
0.5376604 	 16.0709279 	 1102.7910 	 1.089 	 94.981
0.5394815 	 16.2834426 	 1122.4097 	 1.088 	 94.953
0.5412812 	 16.4975921 	 1127.3383 	 1.089 	 94.919
0.5430631 	 16.7172043 	 1142.4549 	 1.089 	 94.922
0.5448246 	 16.9358298 	 1154.7243 	 1.089 	 94.920
0.5465677 	 17.1632096 	 1172.9333 	 1.089 	 94.928
0.5482921 	 17.3833409 	 1194.5383 	 1.089 	 94.931
0.5499992 	 17.6060705 	 1228.7918 	 1.088 	 94.936
0.5516904 	 17.8307170 	 1272.0197 	 1.088 	 94.909
0.5533627 	 18.0609327 	 1304.0799 	 1.087 	 94.934
0.5550196 	 18.2891070 	 1355.9880 	 1.086 	 94.912
0.5566574 	 18.5210226 	 1426.1367 	 1.087 	 94.895
0.5582799 	 18.7565222 	 1499.9854 	 1.088 	 94.895
0.5598843 	 18.9942364 	 1617.6410 	 1.088 	 94.906
0.5614713 	 19.2357956 	 1777.8533 	 1.088 	 94.896
0.5630428 	 19.4727646 	 2021.4951 	 1.088 	 94.860
0.5645979 	 19.7192168 	 2366.4074 	 1.087 	 94.867
0.5661364 	 19.9581431 	 2843.2515 	 1.087 	 94.848
0.5676599 	 20.2011495 	 3580.3030 	 1.088 	 94.847
0.5691678 	 20.4620481 	 4554.2198 	 1.088 	 94.885
0.5706600 	 20.7155771 	 5844.5160 	 1.088 	 94.849
0.5721357 	 20.9794014 	 7828.7771 	 1.087 	 94.858
0.5735958 	 21.2559110 	 10131.2803 	 1.088 	 94.856
0.5750415 	 21.5322793 	 13176.5949 	 1.087 	 94.859
0.5764708 	 21.8057016 	 16800.2349 	 1.086 	 94.845
0.5778848 	 22.0940616 	 20979.7479 	 1.086 	 94.830
0.5792810 	 22.3902110 	 26157.2580 	 1.084 	 94.844
0.5806622 	 22.6918864 	 32248.0431 	 1.084 	 94.798
0.5820275 	 23.0006601 	 39105.6281 	 1.084 	 94.817
0.5833763 	 23.3171440 	 46188.0614 	 1.083 	 94.768
0.5847091 	 23.6513525 	 54361.8331 	 1.082 	 94.797
0.5860254 	 23.9802514 	 63582.7908 	 1.080 	 94.725
0.5873247 	 24.3292630 	 72489.0105 	 1.079 	 94.732
0.5886079 	 24.6822347 	 82734.4400 	 1.079 	 94.741
0.5898746 	 25.0416048 	 93099.6394 	 1.078 	 94.715
0.5911249 	 25.4041246 	 104202.0001 	 1.076 	 94.669
0.5923592 	 25.7860381 	 117741.1848 	 1.073 	 94.671
0.5935768 	 26.1815511 	 132149.9252 	 1.073 	 94.689
0.5947773 	 26.5734192 	 146895.5637 	 1.071 	 94.648
0.5959621 	 26.9875812 	 162194.8023 	 1.071 	 94.651
0.5971313 	 27.4082484 	 180348.8377 	 1.069 	 94.605
0.5982831 	 27.8433149 	 198865.1249 	 1.068 	 94.625
0.5994179 	 28.2959067 	 217994.7015 	 1.066 	 94.598
0.6005360 	 28.7530825 	 238188.6402 	 1.065 	 94.568
0.6016381 	 29.2326425 	 257124.2677 	 1.064 	 94.579
0.6027229 	 29.7208187 	 275419.0574 	 1.064 	 94.546
0.6037912 	 30.2314362 	 295822.5491 	 1.063 	 94.538
0.6048419 	 30.7375964 	 316780.0419 	 1.062 	 94.490
0.6058771 	 31.2916753 	 334000.4376 	 1.063 	 94.511
0.6068950 	 31.8381425 	 350883.9415 	 1.063 	 94.484
0.6078954 	 32.4115275 	 371141.6878 	 1.063 	 94.448
0.6088795 	 33.0127760 	 385865.4692 	 1.063 	 94.465
0.6098475 	 33.6142731 	 405543.3015 	 1.063 	 94.456
0.6107981 	 34.2394724 	 421228.0013 	 1.063 	 94.448
0.6117323 	 34.8792927 	 437231.4924 	 1.063 	 94.422
0.6126496 	 35.5361653 	 451475.6266 	 1.063 	 94.410
0.6135512 	 36.1960281 	 466300.9511 	 1.063 	 94.393
0.6144377 	 36.8983436 	 478957.4361 	 1.063 	 94.451
0.6153072 	 37.5965146 	 493530.1207 	 1.064 	 94.414
0.6161619 	 38.3085678 	 503423.5977 	 1.064 	 94.416
0.6170015 	 39.0373350 	 513711.6584 	 1.064 	 94.418
0.6178259 	 39.7899200 	 529492.8017 	 1.064 	 94.426
0.6186354 	 40.5378326 	 541577.6375 	 1.064 	 94.427
0.6194313 	 41.3256353 	 555047.0689 	 1.064 	 94.411
0.6202121 	 42.0899613 	 562995.6074 	 1.065 	 94.430
0.6209795 	 42.8920461 	 572565.8346 	 1.065 	 94.429
0.6217331 	 43.6909757 	 578732.2575 	 1.065 	 94.420
0.6224735 	 44.5082366 	 582354.6777 	 1.066 	 94.491
0.6232013 	 45.3272527 	 584379.9647 	 1.067 	 94.462
0.6239166 	 46.1429458 	 583631.2839 	 1.069 	 94.507
0.6246194 	 46.9664072 	 575623.6284 	 1.072 	 94.511
0.6253108 	 47.7650299 	 564037.1945 	 1.075 	 94.557
0.6259914 	 48.5798451 	 541171.1993 	 1.079 	 94.623
0.6266611 	 49.3619659 	 513107.5995 	 1.086 	 94.637
0.6273213 	 50.1333850 	 486375.2098 	 1.094 	 94.723
0.6279722 	 50.8721347 	 463316.7045 	 1.104 	 94.796
0.6286138 	 51.5699028 	 447032.2476 	 1.116 	 94.835
0.6292472 	 52.2894741 	 444842.1042 	 1.130 	 94.918
0.6298728 	 53.0094822 	 463256.8176 	 1.143 	 94.990
