N=100 	 R=1000000 	 s=1 	 Save [density, Z, rho_t, like/unlike, events per sweep]
0.0001348 	 1.0005116 	 1.1026 	 0.993 	 10.125
0.0132636 	 1.1625672 	 12.1691 	 0.951 	 46.838
0.0261024 	 1.1529010 	 22.8941 	 1.005 	 78.958
0.0385326 	 1.1920104 	 33.2641 	 1.013 	 88.284
0.0505556 	 1.2396690 	 43.7756 	 1.016 	 92.015
0.0622030 	 1.2922887 	 54.1452 	 1.017 	 93.829
0.0735115 	 1.3484454 	 64.2927 	 1.019 	 94.762
0.0844792 	 1.4079133 	 75.1073 	 1.020 	 95.263
0.0951203 	 1.4698771 	 85.6834 	 1.020 	 95.524
0.1054486 	 1.5339736 	 95.8571 	 1.022 	 95.659
0.1154868 	 1.6005438 	 106.1097 	 1.023 	 95.790
0.1252504 	 1.6686843 	 116.3706 	 1.024 	 95.817
0.1347403 	 1.7388603 	 126.8745 	 1.026 	 95.795
0.1439768 	 1.8102899 	 137.2502 	 1.027 	 95.891
0.1529766 	 1.8844149 	 148.4400 	 1.028 	 95.828
0.1617377 	 1.9600630 	 159.1396 	 1.030 	 95.839
0.1702672 	 2.0373441 	 168.6928 	 1.031 	 95.810
0.1785742 	 2.1160565 	 179.0249 	 1.032 	 95.802
0.1866776 	 2.1964287 	 189.5099 	 1.034 	 95.752
0.1945824 	 2.2785582 	 200.4394 	 1.035 	 95.757
0.2022918 	 2.3626073 	 210.6038 	 1.036 	 95.750
0.2098187 	 2.4472081 	 219.1037 	 1.037 	 95.673
0.2171689 	 2.5347297 	 229.4989 	 1.039 	 95.699
0.2243439 	 2.6229312 	 241.3908 	 1.040 	 95.692
0.2313526 	 2.7130827 	 253.0075 	 1.041 	 95.668
0.2381981 	 2.8049329 	 263.3462 	 1.042 	 95.662
0.2448857 	 2.8978915 	 271.5538 	 1.043 	 95.634
0.2514311 	 2.9925645 	 282.1749 	 1.044 	 95.605
0.2578362 	 3.0887964 	 292.7362 	 1.045 	 95.613
0.2640970 	 3.1861550 	 304.5378 	 1.046 	 95.571
0.2702240 	 3.2858412 	 314.3385 	 1.047 	 95.575
0.2762241 	 3.3866135 	 326.9497 	 1.049 	 95.568
0.2821021 	 3.4889472 	 337.6868 	 1.050 	 95.555
0.2878545 	 3.5926652 	 349.5345 	 1.051 	 95.541
0.2934926 	 3.6987854 	 363.4411 	 1.052 	 95.542
0.2990141 	 3.8050647 	 373.1963 	 1.053 	 95.503
0.3044262 	 3.9141164 	 383.4264 	 1.054 	 95.489
0.3097334 	 4.0238191 	 389.7532 	 1.056 	 95.484
0.3149334 	 4.1349208 	 398.7811 	 1.056 	 95.474
0.3200366 	 4.2480367 	 410.6957 	 1.057 	 95.456
0.3250387 	 4.3623603 	 424.3464 	 1.058 	 95.444
0.3299554 	 4.4786346 	 436.8594 	 1.059 	 95.447
0.3347791 	 4.5947007 	 447.4986 	 1.059 	 95.417
0.3395091 	 4.7137545 	 457.9398 	 1.061 	 95.390
0.3441540 	 4.8344227 	 467.9046 	 1.061 	 95.410
0.3487165 	 4.9561209 	 472.5758 	 1.063 	 95.385
0.3531967 	 5.0799843 	 485.1604 	 1.064 	 95.387
0.3575966 	 5.2031663 	 496.1729 	 1.064 	 95.357
0.3619209 	 5.3298334 	 507.6370 	 1.065 	 95.370
0.3661672 	 5.4586923 	 519.6740 	 1.066 	 95.367
0.3703427 	 5.5865852 	 530.0838 	 1.066 	 95.350
0.3744522 	 5.7170046 	 536.8141 	 1.067 	 95.341
0.3784904 	 5.8497352 	 548.0984 	 1.068 	 95.345
0.3824596 	 5.9833393 	 559.6430 	 1.069 	 95.345
0.3863626 	 6.1167638 	 564.8882 	 1.070 	 95.296
0.3902050 	 6.2519091 	 577.8273 	 1.070 	 95.267
0.3939862 	 6.3912796 	 587.1119 	 1.071 	 95.285
0.3977017 	 6.5287816 	 602.0466 	 1.072 	 95.278
0.4013612 	 6.6702679 	 613.1768 	 1.072 	 95.310
0.4049664 	 6.8125499 	 624.4978 	 1.073 	 95.253
0.4085129 	 6.9555280 	 635.0015 	 1.074 	 95.259
0.4120031 	 7.1000449 	 644.5370 	 1.074 	 95.275
0.4154402 	 7.2448725 	 653.3634 	 1.075 	 95.216
0.4188268 	 7.3915075 	 664.7356 	 1.075 	 95.223
0.4221630 	 7.5419297 	 668.8868 	 1.076 	 95.237
0.4254491 	 7.6921699 	 684.2145 	 1.076 	 95.194
0.4286876 	 7.8429964 	 689.9430 	 1.077 	 95.206
0.4318780 	 7.9962040 	 701.4482 	 1.078 	 95.194
0.4350217 	 8.1513548 	 709.7992 	 1.078 	 95.223
0.4381182 	 8.3062099 	 716.7390 	 1.079 	 95.200
0.4411709 	 8.4629085 	 723.7033 	 1.079 	 95.202
0.4441821 	 8.6205004 	 736.5807 	 1.080 	 95.183
0.4471515 	 8.7802297 	 748.9373 	 1.080 	 95.149
0.4500796 	 8.9402353 	 760.3526 	 1.081 	 95.150
0.4529650 	 9.1034633 	 772.4008 	 1.082 	 95.141
0.4558104 	 9.2663318 	 785.8081 	 1.081 	 95.140
0.4586184 	 9.4319641 	 796.5188 	 1.082 	 95.119
0.4613903 	 9.6011882 	 809.7075 	 1.083 	 95.168
0.4641246 	 9.7660072 	 825.1300 	 1.083 	 95.121
0.4668225 	 9.9358172 	 836.7348 	 1.084 	 95.120
0.4694849 	 10.1079660 	 845.3087 	 1.084 	 95.137
0.4721114 	 10.2796689 	 859.4445 	 1.083 	 95.141
0.4747059 	 10.4497926 	 867.8422 	 1.084 	 95.093
0.4772637 	 10.6278569 	 881.4578 	 1.084 	 95.121
0.4797919 	 10.8022847 	 889.6839 	 1.084 	 95.110
0.4822844 	 10.9770763 	 900.0872 	 1.086 	 95.071
0.4847487 	 11.1563672 	 908.7623 	 1.085 	 95.085
0.4871826 	 11.3360839 	 919.2631 	 1.086 	 95.113
0.4895861 	 11.5171198 	 930.6383 	 1.086 	 95.090
0.4919598 	 11.7026632 	 932.0067 	 1.086 	 95.088
0.4943035 	 11.8842377 	 944.7432 	 1.086 	 95.066
0.4966201 	 12.0697760 	 954.1908 	 1.087 	 95.052
0.4989065 	 12.2567967 	 965.8442 	 1.087 	 95.050
0.5011663 	 12.4453043 	 969.0367 	 1.087 	 95.037
0.5033982 	 12.6319650 	 985.4030 	 1.087 	 95.046
0.5056039 	 12.8217055 	 994.2027 	 1.087 	 95.028
0.5077858 	 13.0194500 	 1000.1895 	 1.087 	 95.037
0.5099401 	 13.2075235 	 1016.4071 	 1.088 	 95.023
0.5120706 	 13.4083342 	 1028.6128 	 1.087 	 95.025
0.5141772 	 13.5991089 	 1043.3992 	 1.087 	 94.983
0.5162588 	 13.7954084 	 1062.1123 	 1.088 	 95.012
0.5183170 	 13.9945678 	 1069.4656 	 1.088 	 95.001
0.5203511 	 14.1970401 	 1080.7611 	 1.088 	 94.981
0.5223610 	 14.4004014 	 1086.2298 	 1.087 	 94.987
0.5243477 	 14.6081181 	 1102.6488 	 1.087 	 94.986
0.5263136 	 14.8106507 	 1123.7463 	 1.088 	 94.992
0.5282568 	 15.0115584 	 1126.6654 	 1.087 	 94.942
0.5301793 	 15.2294040 	 1141.5890 	 1.087 	 95.000
0.5320793 	 15.4364311 	 1151.8831 	 1.087 	 94.984
0.5339584 	 15.6450513 	 1164.9883 	 1.087 	 94.964
0.5358186 	 15.8507138 	 1172.9033 	 1.088 	 94.955
0.5376584 	 16.0651915 	 1185.1206 	 1.088 	 94.962
0.5394797 	 16.2815219 	 1201.6387 	 1.087 	 94.973
0.5412813 	 16.4956036 	 1215.7656 	 1.087 	 94.935
0.5430620 	 16.7150389 	 1242.4872 	 1.087 	 94.933
0.5448253 	 16.9345699 	 1269.2438 	 1.086 	 94.938
0.5465687 	 17.1497238 	 1288.7818 	 1.087 	 94.888
0.5482954 	 17.3776885 	 1313.3424 	 1.087 	 94.947
0.5500041 	 17.5909990 	 1341.6794 	 1.086 	 94.907
0.5516947 	 17.8115389 	 1369.2812 	 1.086 	 94.875
0.5533681 	 18.0431929 	 1420.5784 	 1.086 	 94.893
0.5550248 	 18.2702230 	 1491.8926 	 1.085 	 94.911
0.5566642 	 18.4985754 	 1583.7745 	 1.085 	 94.920
0.5582877 	 18.7272635 	 1745.4487 	 1.085 	 94.889
0.5598962 	 18.9555097 	 1985.7477 	 1.086 	 94.884
0.5614882 	 19.1873980 	 2330.0580 	 1.085 	 94.884
0.5630640 	 19.4246149 	 2886.4258 	 1.086 	 94.913
0.5646238 	 19.6623090 	 3672.5168 	 1.086 	 94.897
0.5661685 	 19.9012225 	 4844.5813 	 1.088 	 94.888
0.5676972 	 20.1421250 	 6477.7162 	 1.089 	 94.868
0.5692110 	 20.3780795 	 8704.6254 	 1.090 	 94.857
0.5707096 	 20.6448508 	 11259.4162 	 1.092 	 94.906
0.5721924 	 20.8948222 	 14581.1239 	 1.094 	 94.874
0.5736592 	 21.1639050 	 18315.7985 	 1.096 	 94.890
0.5751104 	 21.4323672 	 22989.1583 	 1.098 	 94.842
0.5765457 	 21.7204406 	 28032.9093 	 1.101 	 94.883
0.5779648 	 22.0156035 	 33988.8854 	 1.103 	 94.888
0.5793683 	 22.3213259 	 39177.9742 	 1.108 	 94.888
0.5807537 	 22.6371082 	 44785.3300 	 1.109 	 94.872
0.5821216 	 22.9682010 	 49862.6229 	 1.113 	 94.871
0.5834719 	 23.3121405 	 54335.4624 	 1.116 	 94.895
0.5848054 	 23.6559946 	 57602.5032 	 1.118 	 94.883
0.5861194 	 24.0273983 	 60999.3498 	 1.121 	 94.890
0.5874152 	 24.3995778 	 63451.2001 	 1.122 	 94.872
0.5886942 	 24.7882239 	 65555.5420 	 1.124 	 94.882
0.5899542 	 25.1749712 	 66833.4838 	 1.126 	 94.855
0.5911969 	 25.5759410 	 68311.5790 	 1.126 	 94.867
0.5924211 	 25.9851812 	 69906.5936 	 1.127 	 94.865
0.5936284 	 26.3972521 	 70758.5657 	 1.127 	 94.875
0.5948195 	 26.8142784 	 72362.7385 	 1.127 	 94.831
0.5959915 	 27.2495418 	 73665.8171 	 1.127 	 94.862
0.5971474 	 27.6824290 	 74415.5948 	 1.127 	 94.867
0.5982871 	 28.1173252 	 75819.8628 	 1.126 	 94.862
0.5994112 	 28.5600091 	 78146.1293 	 1.126 	 94.877
0.6005198 	 28.9954814 	 82024.9408 	 1.124 	 94.855
0.6016129 	 29.4375786 	 88934.0117 	 1.124 	 94.853
0.6026904 	 29.8805168 	 98014.4772 	 1.123 	 94.863
0.6037540 	 30.3145491 	 110087.0043 	 1.124 	 94.861
0.6048026 	 30.7721068 	 125410.0701 	 1.125 	 94.881
0.6058376 	 31.2211329 	 145826.5419 	 1.127 	 94.855
0.6068588 	 31.6748532 	 171267.6484 	 1.130 	 94.878
0.6078665 	 32.1573825 	 199622.8083 	 1.134 	 94.874
0.6088600 	 32.6617382 	 230610.3819 	 1.138 	 94.875
0.6098391 	 33.1830513 	 261913.7032 	 1.143 	 94.838
0.6108031 	 33.7390121 	 293447.0213 	 1.148 	 94.884
0.6117529 	 34.2983606 	 323897.6373 	 1.154 	 94.832
0.6126882 	 34.8842707 	 354722.0215 	 1.160 	 94.832
0.6136079 	 35.5127091 	 378456.5010 	 1.164 	 94.817
0.6145124 	 36.1524523 	 400976.1127 	 1.168 	 94.825
0.6154014 	 36.8084953 	 421299.4095 	 1.172 	 94.811
0.6162758 	 37.4869825 	 437639.6151 	 1.176 	 94.808
0.6171340 	 38.1922147 	 450649.2029 	 1.179 	 94.782
0.6179779 	 38.9244974 	 463053.6597 	 1.183 	 94.786
0.6188064 	 39.6525757 	 474743.9664 	 1.186 	 94.772
0.6196199 	 40.4237482 	 482033.1760 	 1.189 	 94.732
0.6204196 	 41.1923693 	 484731.9820 	 1.190 	 94.693
0.6212037 	 42.0049166 	 486117.6966 	 1.192 	 94.717
0.6219734 	 42.8117246 	 486577.7840 	 1.193 	 94.689
0.6227292 	 43.6398917 	 485745.0320 	 1.194 	 94.669
0.6234712 	 44.4983563 	 479980.3039 	 1.194 	 94.646
0.6241997 	 45.3684928 	 478313.5374 	 1.194 	 94.650
0.6249152 	 46.2539403 	 474145.1931 	 1.195 	 94.605
0.6256166 	 47.1675772 	 465829.3691 	 1.193 	 94.631
0.6263054 	 48.0812004 	 460299.9575 	 1.192 	 94.582
0.6269815 	 49.0338770 	 454918.0640 	 1.193 	 94.594
0.6276443 	 49.9914198 	 448392.2928 	 1.191 	 94.566
0.6282955 	 50.9805967 	 439139.2450 	 1.190 	 94.553
0.6289347 	 51.9671099 	 430017.3017 	 1.187 	 94.550
0.6295625 	 52.9879838 	 420805.2247 	 1.185 	 94.536
