N=100 	 R=1000000 	 s=1 	 Save [density, Z, rho_t, like/unlike, events per sweep]
0.0001336 	 1.0005060 	 1.1026 	 1.006 	 10.123
0.0132453 	 1.1627214 	 12.1823 	 0.950 	 46.749
0.0260664 	 1.1527914 	 22.7779 	 1.005 	 78.913
0.0384833 	 1.1918039 	 33.5994 	 1.013 	 88.242
0.0505033 	 1.2395242 	 44.3062 	 1.017 	 92.022
0.0621434 	 1.2920418 	 54.8489 	 1.018 	 93.787
0.0734434 	 1.3480657 	 65.5566 	 1.019 	 94.773
0.0844027 	 1.4074995 	 76.2526 	 1.020 	 95.263
0.0950428 	 1.4693813 	 86.6321 	 1.021 	 95.507
0.1053828 	 1.5335603 	 96.7427 	 1.022 	 95.673
0.1154373 	 1.6000804 	 108.3863 	 1.024 	 95.750
0.1252086 	 1.6684718 	 119.9567 	 1.025 	 95.797
0.1347065 	 1.7383676 	 130.1289 	 1.026 	 95.797
0.1439492 	 1.8101037 	 140.1055 	 1.027 	 95.871
0.1529416 	 1.8840597 	 150.0526 	 1.029 	 95.842
0.1616966 	 1.9597310 	 160.9355 	 1.029 	 95.827
0.1702295 	 2.0370495 	 171.7200 	 1.031 	 95.826
0.1785420 	 2.1152941 	 181.5103 	 1.032 	 95.758
0.1866441 	 2.1963968 	 191.1485 	 1.034 	 95.776
0.1945436 	 2.2784628 	 200.5546 	 1.035 	 95.765
0.2022514 	 2.3620715 	 209.6950 	 1.036 	 95.734
0.2097733 	 2.4472468 	 219.1893 	 1.038 	 95.715
0.2171227 	 2.5337851 	 230.4266 	 1.038 	 95.662
0.2242967 	 2.6222958 	 240.6410 	 1.040 	 95.666
0.2313046 	 2.7126078 	 251.0348 	 1.041 	 95.669
0.2381558 	 2.8041186 	 262.2862 	 1.042 	 95.661
0.2448516 	 2.8975259 	 272.7855 	 1.043 	 95.633
0.2513983 	 2.9919448 	 282.9120 	 1.044 	 95.635
0.2577989 	 3.0878962 	 294.8855 	 1.045 	 95.578
0.2640662 	 3.1861173 	 305.9006 	 1.046 	 95.593
0.2701926 	 3.2850541 	 314.7318 	 1.047 	 95.571
0.2761922 	 3.3864500 	 326.0736 	 1.049 	 95.579
0.2820637 	 3.4882922 	 337.4879 	 1.050 	 95.552
0.2878189 	 3.5923678 	 347.5351 	 1.051 	 95.536
0.2934592 	 3.6971545 	 358.5313 	 1.052 	 95.524
0.2989810 	 3.8048495 	 366.7892 	 1.052 	 95.501
0.3043907 	 3.9126712 	 377.3423 	 1.054 	 95.509
0.3096949 	 4.0228294 	 388.3609 	 1.055 	 95.500
0.3148992 	 4.1348575 	 394.7249 	 1.056 	 95.474
0.3200024 	 4.2472379 	 402.5707 	 1.057 	 95.466
0.3250109 	 4.3613532 	 413.5414 	 1.058 	 95.441
0.3299244 	 4.4773327 	 425.8961 	 1.059 	 95.437
0.3347463 	 4.5943193 	 438.0719 	 1.059 	 95.424
0.3394784 	 4.7142214 	 448.3369 	 1.061 	 95.439
0.3441205 	 4.8336736 	 459.0342 	 1.062 	 95.425
0.3486825 	 4.9560038 	 468.2101 	 1.063 	 95.423
0.3531617 	 5.0794251 	 479.6076 	 1.063 	 95.405
0.3575634 	 5.2036628 	 488.1590 	 1.063 	 95.400
0.3618885 	 5.3295385 	 498.7105 	 1.065 	 95.389
0.3661401 	 5.4572193 	 506.9669 	 1.066 	 95.356
0.3703166 	 5.5865401 	 517.9111 	 1.067 	 95.361
0.3744235 	 5.7166067 	 524.9600 	 1.067 	 95.333
0.3784603 	 5.8475429 	 532.8942 	 1.068 	 95.305
0.3824328 	 5.9819839 	 545.0667 	 1.069 	 95.326
0.3863411 	 6.1153266 	 556.7153 	 1.070 	 95.318
0.3901821 	 6.2533198 	 568.3314 	 1.071 	 95.313
0.3939603 	 6.3891374 	 580.2844 	 1.071 	 95.295
0.3976799 	 6.5290870 	 591.4392 	 1.072 	 95.279
0.4013441 	 6.6702330 	 604.7897 	 1.072 	 95.293
0.4049452 	 6.8107838 	 614.5220 	 1.073 	 95.266
0.4084939 	 6.9545873 	 619.9247 	 1.074 	 95.256
0.4119853 	 7.0987407 	 633.1256 	 1.075 	 95.235
0.4154229 	 7.2443324 	 640.5026 	 1.074 	 95.240
0.4188081 	 7.3897473 	 649.7388 	 1.076 	 95.209
0.4221425 	 7.5414766 	 663.4446 	 1.077 	 95.216
0.4254319 	 7.6901454 	 669.5548 	 1.077 	 95.230
0.4286699 	 7.8435447 	 674.3123 	 1.077 	 95.210
0.4318599 	 7.9958948 	 683.2647 	 1.078 	 95.193
0.4350046 	 8.1495784 	 695.3464 	 1.078 	 95.198
0.4381036 	 8.3052647 	 705.0226 	 1.078 	 95.171
0.4411565 	 8.4613942 	 713.7940 	 1.079 	 95.168
0.4441692 	 8.6186513 	 727.2310 	 1.080 	 95.179
0.4471401 	 8.7802402 	 734.2854 	 1.080 	 95.178
0.4500670 	 8.9411898 	 748.8122 	 1.080 	 95.135
0.4529545 	 9.1044104 	 762.8776 	 1.081 	 95.161
0.4558037 	 9.2686294 	 773.8898 	 1.081 	 95.157
0.4586124 	 9.4338513 	 781.2782 	 1.082 	 95.169
0.4613836 	 9.5998905 	 789.6756 	 1.082 	 95.159
0.4641185 	 9.7636821 	 799.8620 	 1.083 	 95.119
0.4668170 	 9.9369428 	 809.2196 	 1.083 	 95.147
0.4694812 	 10.1065343 	 818.7546 	 1.083 	 95.125
0.4721092 	 10.2744077 	 831.6255 	 1.083 	 95.113
0.4747013 	 10.4493296 	 841.5310 	 1.084 	 95.120
0.4772610 	 10.6254004 	 845.3881 	 1.085 	 95.100
0.4797868 	 10.8001185 	 851.9186 	 1.084 	 95.116
0.4822836 	 10.9760842 	 865.1294 	 1.085 	 95.073
0.4847467 	 11.1552353 	 880.4003 	 1.085 	 95.072
0.4871784 	 11.3348921 	 893.4155 	 1.085 	 95.069
0.4895815 	 11.5179461 	 908.5292 	 1.086 	 95.081
0.4919549 	 11.7002785 	 925.4819 	 1.086 	 95.095
0.4942991 	 11.8849046 	 944.2985 	 1.085 	 95.064
0.4966154 	 12.0690276 	 957.7384 	 1.086 	 95.063
0.4989021 	 12.2541082 	 968.4753 	 1.086 	 95.042
0.5011615 	 12.4425527 	 985.6965 	 1.086 	 95.040
0.5033950 	 12.6328646 	 995.9456 	 1.087 	 95.037
0.5056013 	 12.8271025 	 1007.0856 	 1.088 	 95.050
0.5077812 	 13.0145425 	 1017.5555 	 1.087 	 95.039
0.5099367 	 13.2087368 	 1027.0575 	 1.088 	 95.027
0.5120668 	 13.4056525 	 1038.6192 	 1.087 	 95.010
0.5141692 	 13.6013241 	 1049.4344 	 1.088 	 95.010
0.5162499 	 13.7999287 	 1060.1380 	 1.088 	 95.008
0.5183071 	 13.9978667 	 1072.3103 	 1.088 	 94.989
0.5203416 	 14.2002753 	 1081.6244 	 1.088 	 95.015
0.5223514 	 14.3998392 	 1097.1860 	 1.088 	 94.987
0.5243401 	 14.6009426 	 1110.1401 	 1.088 	 94.988
0.5263072 	 14.8092080 	 1116.2215 	 1.088 	 94.984
0.5282499 	 15.0108162 	 1126.8577 	 1.088 	 94.985
0.5301733 	 15.2252882 	 1133.3826 	 1.088 	 94.991
0.5320749 	 15.4299457 	 1152.1428 	 1.088 	 94.977
0.5339548 	 15.6438666 	 1166.6073 	 1.088 	 94.963
0.5358158 	 15.8561620 	 1182.1061 	 1.089 	 94.964
0.5376557 	 16.0685618 	 1205.8728 	 1.088 	 94.954
0.5394764 	 16.2857064 	 1221.6368 	 1.088 	 94.939
0.5412769 	 16.5071004 	 1239.0636 	 1.088 	 94.938
0.5430576 	 16.7196942 	 1265.3333 	 1.088 	 94.933
0.5448200 	 16.9393410 	 1286.1862 	 1.088 	 94.951
0.5465621 	 17.1595159 	 1310.6267 	 1.088 	 94.919
0.5482880 	 17.3794326 	 1346.5863 	 1.088 	 94.887
0.5499954 	 17.6150760 	 1386.5062 	 1.088 	 94.930
0.5516844 	 17.8347701 	 1428.4036 	 1.088 	 94.920
0.5533571 	 18.0618540 	 1468.0014 	 1.089 	 94.905
0.5550115 	 18.2954130 	 1503.2585 	 1.089 	 94.923
0.5566483 	 18.5294011 	 1562.0009 	 1.089 	 94.889
0.5582682 	 18.7639286 	 1643.6984 	 1.089 	 94.909
0.5598715 	 19.0041358 	 1718.2093 	 1.088 	 94.897
0.5614580 	 19.2471470 	 1834.5794 	 1.088 	 94.897
0.5630282 	 19.4765817 	 1979.4724 	 1.089 	 94.863
0.5645830 	 19.7230565 	 2141.8357 	 1.089 	 94.919
0.5661219 	 19.9677116 	 2342.4433 	 1.088 	 94.888
0.5676448 	 20.2155177 	 2672.9142 	 1.089 	 94.898
0.5691529 	 20.4561362 	 3060.3283 	 1.089 	 94.849
0.5706456 	 20.7096465 	 3645.3377 	 1.090 	 94.870
0.5721231 	 20.9715625 	 4355.8685 	 1.090 	 94.887
0.5735857 	 21.2162484 	 5295.5718 	 1.091 	 94.875
0.5750326 	 21.4784263 	 6699.5213 	 1.092 	 94.871
0.5764649 	 21.7502349 	 8287.5924 	 1.094 	 94.864
0.5778829 	 22.0265433 	 10509.8205 	 1.096 	 94.864
0.5792850 	 22.3050450 	 13498.8114 	 1.096 	 94.861
0.5806725 	 22.5849802 	 17936.9072 	 1.098 	 94.845
0.5820453 	 22.8679340 	 23879.3536 	 1.101 	 94.831
0.5834023 	 23.1668750 	 31312.0860 	 1.105 	 94.793
0.5847451 	 23.4913781 	 40410.2903 	 1.108 	 94.814
0.5860716 	 23.8131695 	 52648.7262 	 1.111 	 94.799
0.5873811 	 24.1478044 	 68062.8848 	 1.116 	 94.774
0.5886752 	 24.4950754 	 86220.3258 	 1.121 	 94.778
0.5899519 	 24.8479805 	 109677.9972 	 1.126 	 94.756
0.5912123 	 25.2213005 	 136085.8527 	 1.131 	 94.719
0.5924569 	 25.6081547 	 166553.4384 	 1.137 	 94.711
0.5936833 	 26.0053770 	 200105.7218 	 1.143 	 94.662
0.5948924 	 26.4176433 	 237981.8486 	 1.149 	 94.668
0.5960842 	 26.8476117 	 280411.6315 	 1.156 	 94.655
0.5972579 	 27.2846213 	 322558.7954 	 1.162 	 94.610
0.5984142 	 27.7322844 	 364558.7829 	 1.167 	 94.596
0.5995533 	 28.1939265 	 405423.0371 	 1.174 	 94.556
0.6006751 	 28.6749229 	 447777.3903 	 1.179 	 94.528
0.6017797 	 29.1792403 	 490151.6519 	 1.185 	 94.527
0.6028660 	 29.6816250 	 530834.6874 	 1.191 	 94.500
0.6039350 	 30.2132473 	 565955.1641 	 1.196 	 94.487
0.6049866 	 30.7549712 	 598840.0450 	 1.201 	 94.462
0.6060209 	 31.3106370 	 629348.0866 	 1.205 	 94.456
0.6070373 	 31.8839228 	 653919.2627 	 1.210 	 94.449
0.6080374 	 32.4696013 	 674836.3974 	 1.214 	 94.397
0.6090189 	 33.0744644 	 696130.7050 	 1.217 	 94.387
0.6099846 	 33.6875257 	 715613.8943 	 1.222 	 94.368
0.6109332 	 34.3246815 	 729349.3206 	 1.225 	 94.361
0.6118656 	 34.9558818 	 743143.2594 	 1.229 	 94.288
0.6127818 	 35.6290762 	 754508.9682 	 1.232 	 94.306
0.6136811 	 36.3064451 	 761251.0168 	 1.236 	 94.253
0.6145650 	 37.0011289 	 768306.0195 	 1.238 	 94.261
0.6154323 	 37.7111169 	 775685.0107 	 1.241 	 94.246
0.6162848 	 38.4386554 	 777926.3181 	 1.244 	 94.241
0.6171219 	 39.1638143 	 783217.6692 	 1.247 	 94.167
0.6179439 	 39.9287336 	 784096.5687 	 1.249 	 94.163
0.6187502 	 40.7178627 	 783008.5128 	 1.251 	 94.183
0.6195414 	 41.4955620 	 780026.5344 	 1.253 	 94.128
0.6203190 	 42.2949334 	 779520.1242 	 1.255 	 94.107
0.6210826 	 43.1202462 	 773444.5297 	 1.257 	 94.113
0.6218319 	 43.9577484 	 769550.8516 	 1.259 	 94.069
0.6225678 	 44.8190328 	 768754.9064 	 1.261 	 94.066
0.6232902 	 45.6872097 	 761549.4200 	 1.262 	 94.045
0.6239995 	 46.5609619 	 756440.6622 	 1.263 	 94.024
0.6246958 	 47.4756289 	 748796.5568 	 1.264 	 94.040
0.6253786 	 48.3888461 	 739904.6331 	 1.265 	 94.007
0.6260501 	 49.3026277 	 734556.9862 	 1.266 	 94.012
0.6267084 	 50.2571644 	 725682.6705 	 1.266 	 93.996
0.6273550 	 51.2224114 	 715808.3120 	 1.266 	 93.966
0.6279894 	 52.1855126 	 702967.2039 	 1.266 	 93.978
0.6286130 	 53.1907498 	 693719.4840 	 1.265 	 93.987
0.6292253 	 54.1965532 	 682044.4189 	 1.265 	 93.982
0.6298269 	 55.1984798 	 670188.4648 	 1.265 	 93.963
