N=100 	 R=1000000 	 s=1 	 Save [density, Z, rho_t, like/unlike, events per sweep]
0.0001340 	 1.0005107 	 1.1026 	 1.006 	 10.124
0.0132618 	 1.1625199 	 12.2051 	 0.951 	 46.832
0.0260857 	 1.1528529 	 22.8832 	 1.005 	 78.936
0.0385013 	 1.1918332 	 33.6399 	 1.013 	 88.232
0.0505134 	 1.2395855 	 43.9765 	 1.016 	 92.011
0.0621615 	 1.2921317 	 54.3882 	 1.018 	 93.816
0.0734591 	 1.3481466 	 64.4101 	 1.019 	 94.759
0.0844165 	 1.4075375 	 74.4938 	 1.020 	 95.220
0.0950504 	 1.4695192 	 84.6858 	 1.021 	 95.518
0.1053939 	 1.5336545 	 95.2064 	 1.022 	 95.660
0.1154487 	 1.6001688 	 104.9326 	 1.024 	 95.768
0.1252096 	 1.6683372 	 115.1263 	 1.025 	 95.795
0.1347095 	 1.7385679 	 125.8161 	 1.026 	 95.793
0.1439484 	 1.8101051 	 137.1393 	 1.027 	 95.875
0.1529401 	 1.8839804 	 148.8464 	 1.028 	 95.837
0.1616986 	 1.9596998 	 158.4039 	 1.030 	 95.810
0.1702208 	 2.0369347 	 170.0590 	 1.031 	 95.815
0.1785334 	 2.1156498 	 178.8275 	 1.032 	 95.756
0.1866297 	 2.1963588 	 189.6854 	 1.034 	 95.806
0.1945369 	 2.2782528 	 199.1760 	 1.035 	 95.765
0.2022456 	 2.3615269 	 209.0623 	 1.036 	 95.725
0.2097672 	 2.4473196 	 218.7151 	 1.038 	 95.707
0.2171200 	 2.5337464 	 227.9837 	 1.038 	 95.690
0.2242959 	 2.6226049 	 237.8239 	 1.040 	 95.681
0.2313037 	 2.7124519 	 247.7158 	 1.041 	 95.671
0.2381508 	 2.8042154 	 256.6969 	 1.042 	 95.668
0.2448471 	 2.8974591 	 266.6915 	 1.043 	 95.661
0.2513954 	 2.9923012 	 277.4487 	 1.044 	 95.647
0.2577991 	 3.0879512 	 287.5835 	 1.045 	 95.590
0.2640600 	 3.1861389 	 298.8174 	 1.047 	 95.616
0.2701922 	 3.2848551 	 306.8898 	 1.047 	 95.570
0.2761931 	 3.3866655 	 317.4871 	 1.049 	 95.582
0.2820715 	 3.4896332 	 328.5021 	 1.050 	 95.567
0.2878245 	 3.5921838 	 338.1292 	 1.050 	 95.528
0.2934597 	 3.6977923 	 349.0234 	 1.051 	 95.539
0.2989790 	 3.8042320 	 360.6817 	 1.053 	 95.527
0.3043975 	 3.9135128 	 369.0320 	 1.054 	 95.511
0.3097057 	 4.0230975 	 378.7622 	 1.055 	 95.484
0.3149078 	 4.1344251 	 390.2525 	 1.056 	 95.470
0.3200137 	 4.2474183 	 398.2151 	 1.057 	 95.466
0.3250233 	 4.3618373 	 409.3414 	 1.058 	 95.456
0.3299340 	 4.4777506 	 421.0536 	 1.059 	 95.444
0.3347543 	 4.5951828 	 430.2113 	 1.060 	 95.438
0.3394886 	 4.7138445 	 440.8640 	 1.062 	 95.432
0.3441389 	 4.8345292 	 451.2558 	 1.061 	 95.404
0.3486995 	 4.9557618 	 460.0984 	 1.062 	 95.373
0.3531772 	 5.0796937 	 472.0285 	 1.063 	 95.394
0.3575819 	 5.2037034 	 485.7970 	 1.064 	 95.379
0.3619049 	 5.3301703 	 492.3854 	 1.065 	 95.378
0.3661565 	 5.4580764 	 502.7831 	 1.066 	 95.363
0.3703334 	 5.5857615 	 508.7580 	 1.067 	 95.338
0.3744407 	 5.7174119 	 522.8553 	 1.068 	 95.335
0.3784773 	 5.8476964 	 532.8559 	 1.068 	 95.323
0.3824481 	 5.9811712 	 540.1596 	 1.069 	 95.312
0.3863519 	 6.1183458 	 550.3537 	 1.070 	 95.311
0.3901930 	 6.2523073 	 565.1280 	 1.071 	 95.292
0.3939733 	 6.3917015 	 573.2119 	 1.071 	 95.302
0.3976929 	 6.5305044 	 584.2270 	 1.072 	 95.306
0.4013520 	 6.6694043 	 597.8457 	 1.072 	 95.265
0.4049544 	 6.8129963 	 607.7300 	 1.073 	 95.278
0.4084995 	 6.9553378 	 621.3116 	 1.073 	 95.278
0.4119903 	 7.1000738 	 631.2085 	 1.074 	 95.235
0.4154294 	 7.2452604 	 645.7058 	 1.075 	 95.265
0.4188141 	 7.3927996 	 657.8511 	 1.076 	 95.269
0.4221494 	 7.5418668 	 665.8953 	 1.076 	 95.243
0.4254351 	 7.6890954 	 673.2451 	 1.077 	 95.194
0.4286725 	 7.8436473 	 686.9377 	 1.077 	 95.220
0.4318646 	 7.9966422 	 697.0975 	 1.078 	 95.218
0.4350073 	 8.1502948 	 709.1066 	 1.077 	 95.211
0.4381047 	 8.3047168 	 720.4260 	 1.079 	 95.182
0.4411585 	 8.4625221 	 728.6226 	 1.079 	 95.194
0.4441701 	 8.6182383 	 737.9626 	 1.079 	 95.159
0.4471383 	 8.7805957 	 751.3879 	 1.080 	 95.147
0.4500635 	 8.9408623 	 763.3458 	 1.080 	 95.165
0.4529515 	 9.1012388 	 765.3317 	 1.081 	 95.143
0.4557996 	 9.2657175 	 771.9808 	 1.080 	 95.150
0.4586083 	 9.4293241 	 787.4816 	 1.081 	 95.136
0.4613805 	 9.5970148 	 800.2993 	 1.082 	 95.116
0.4641138 	 9.7673102 	 809.3560 	 1.082 	 95.153
0.4668096 	 9.9358149 	 821.9796 	 1.082 	 95.146
0.4694723 	 10.1048039 	 836.7635 	 1.083 	 95.110
0.4721016 	 10.2774812 	 842.9235 	 1.084 	 95.133
0.4746958 	 10.4472033 	 852.4723 	 1.083 	 95.093
0.4772567 	 10.6234738 	 857.1413 	 1.084 	 95.108
0.4797828 	 10.7993365 	 870.2021 	 1.084 	 95.087
0.4822801 	 10.9799984 	 877.6271 	 1.085 	 95.116
0.4847438 	 11.1570487 	 883.5183 	 1.086 	 95.082
0.4871770 	 11.3361260 	 897.2225 	 1.087 	 95.057
0.4895793 	 11.5160634 	 902.3936 	 1.086 	 95.061
0.4919520 	 11.7029724 	 913.1764 	 1.087 	 95.089
0.4942977 	 11.8841290 	 916.7362 	 1.087 	 95.039
0.4966138 	 12.0712732 	 927.9552 	 1.087 	 95.065
0.4989022 	 12.2544398 	 939.3328 	 1.087 	 95.060
0.5011625 	 12.4490565 	 946.9602 	 1.087 	 95.109
0.5033955 	 12.6322254 	 961.4747 	 1.087 	 95.039
0.5056029 	 12.8263328 	 970.7140 	 1.087 	 95.034
0.5077818 	 13.0165640 	 980.0329 	 1.088 	 95.021
0.5099349 	 13.2053036 	 995.9593 	 1.088 	 95.009
0.5120657 	 13.4055506 	 1002.9908 	 1.088 	 95.014
0.5141729 	 13.6033782 	 1012.0079 	 1.087 	 95.042
0.5162533 	 13.7960506 	 1025.5740 	 1.087 	 95.025
0.5183094 	 13.9956276 	 1042.1437 	 1.087 	 94.992
0.5203422 	 14.1986142 	 1052.1146 	 1.086 	 95.018
0.5223542 	 14.3972405 	 1064.5059 	 1.086 	 94.978
0.5243424 	 14.6050764 	 1078.0692 	 1.086 	 95.026
0.5263070 	 14.8125608 	 1092.7301 	 1.086 	 94.979
0.5282505 	 15.0151132 	 1110.1667 	 1.086 	 94.976
0.5301747 	 15.2248971 	 1129.0570 	 1.086 	 94.968
0.5320755 	 15.4329862 	 1143.6922 	 1.085 	 94.966
0.5339554 	 15.6404469 	 1154.1540 	 1.086 	 94.956
0.5358157 	 15.8509778 	 1170.1672 	 1.085 	 94.945
0.5376561 	 16.0687616 	 1179.4262 	 1.085 	 94.965
0.5394787 	 16.2809310 	 1195.8260 	 1.085 	 94.940
0.5412807 	 16.5025707 	 1215.7614 	 1.084 	 94.957
0.5430629 	 16.7117718 	 1237.0840 	 1.084 	 94.913
0.5448251 	 16.9354912 	 1266.1408 	 1.084 	 94.915
0.5465699 	 17.1571985 	 1300.8937 	 1.084 	 94.944
0.5482974 	 17.3768181 	 1314.8472 	 1.084 	 94.924
0.5500064 	 17.6001039 	 1343.8328 	 1.084 	 94.919
0.5516959 	 17.8268770 	 1393.1618 	 1.084 	 94.908
0.5533676 	 18.0486410 	 1426.4158 	 1.083 	 94.885
0.5550221 	 18.2804415 	 1481.4478 	 1.083 	 94.882
0.5566615 	 18.5086607 	 1557.9582 	 1.083 	 94.916
0.5582837 	 18.7385987 	 1660.9166 	 1.083 	 94.894
0.5598900 	 18.9662977 	 1801.9546 	 1.084 	 94.887
0.5614799 	 19.1973890 	 2022.8645 	 1.083 	 94.862
0.5630549 	 19.4291020 	 2326.3426 	 1.083 	 94.885
0.5646146 	 19.6622725 	 2741.4452 	 1.083 	 94.885
0.5661593 	 19.8896618 	 3382.1831 	 1.081 	 94.891
0.5676887 	 20.1214710 	 4339.8626 	 1.081 	 94.877
0.5692050 	 20.3556125 	 5746.9943 	 1.082 	 94.880
0.5707053 	 20.5950869 	 7669.4681 	 1.082 	 94.891
0.5721921 	 20.8404684 	 10235.2402 	 1.081 	 94.872
0.5736647 	 21.0892076 	 13776.0546 	 1.081 	 94.862
0.5751218 	 21.3412123 	 18102.8836 	 1.080 	 94.848
0.5765646 	 21.6112846 	 23619.6280 	 1.080 	 94.890
0.5779930 	 21.8851073 	 30164.7464 	 1.080 	 94.863
0.5794047 	 22.1733782 	 37236.7764 	 1.080 	 94.880
0.5808009 	 22.4676421 	 45539.4468 	 1.080 	 94.857
0.5821800 	 22.7816518 	 53183.6330 	 1.080 	 94.885
0.5835436 	 23.0953470 	 62478.3148 	 1.080 	 94.873
0.5848890 	 23.4291006 	 72355.7896 	 1.080 	 94.843
0.5862188 	 23.7742496 	 82693.7752 	 1.080 	 94.833
0.5875301 	 24.1336232 	 92357.2591 	 1.079 	 94.869
0.5888241 	 24.5004175 	 102965.7328 	 1.079 	 94.879
0.5901000 	 24.8638515 	 115454.9866 	 1.077 	 94.862
0.5913590 	 25.2568365 	 129279.2542 	 1.076 	 94.927
0.5926012 	 25.6377141 	 145681.1494 	 1.075 	 94.912
0.5938273 	 26.0192589 	 167201.2790 	 1.073 	 94.925
0.5950354 	 26.4107074 	 192505.4770 	 1.071 	 94.934
0.5962289 	 26.8119854 	 222087.5244 	 1.070 	 94.951
0.5974056 	 27.2116230 	 256444.1652 	 1.067 	 94.982
0.5985677 	 27.6192336 	 297134.9310 	 1.065 	 94.956
0.5997140 	 28.0321745 	 343433.8241 	 1.064 	 94.975
0.6008439 	 28.4539457 	 391625.3611 	 1.062 	 95.022
0.6019586 	 28.8809475 	 445863.7672 	 1.061 	 94.991
0.6030593 	 29.3291665 	 498430.5868 	 1.061 	 94.992
0.6041436 	 29.7806419 	 554952.1351 	 1.060 	 94.981
0.6052125 	 30.2429779 	 607821.6280 	 1.060 	 94.994
0.6062659 	 30.7463885 	 658210.2244 	 1.061 	 94.980
0.6073032 	 31.2344639 	 707620.6404 	 1.062 	 94.946
0.6083255 	 31.7619715 	 748964.7778 	 1.062 	 94.951
0.6093319 	 32.2918630 	 789319.6353 	 1.065 	 94.922
0.6103227 	 32.8618605 	 824165.6691 	 1.066 	 94.939
0.6112969 	 33.4334653 	 858531.7963 	 1.068 	 94.895
0.6122560 	 34.0231205 	 884898.2388 	 1.071 	 94.872
0.6131988 	 34.6408912 	 906994.5569 	 1.073 	 94.865
0.6141257 	 35.2705789 	 926118.2037 	 1.076 	 94.848
0.6150372 	 35.9222924 	 942460.2671 	 1.079 	 94.835
0.6159325 	 36.5846188 	 953888.2382 	 1.081 	 94.768
0.6168121 	 37.2751946 	 963906.2696 	 1.084 	 94.731
0.6176761 	 37.9923244 	 971181.8660 	 1.087 	 94.734
0.6185253 	 38.7335334 	 978524.0568 	 1.090 	 94.722
0.6193590 	 39.4737107 	 983298.5026 	 1.092 	 94.697
0.6201779 	 40.2384851 	 987679.4467 	 1.095 	 94.681
0.6209808 	 41.0217625 	 990787.1586 	 1.098 	 94.634
0.6217694 	 41.8235976 	 992657.1430 	 1.100 	 94.598
0.6225435 	 42.6433463 	 994485.5802 	 1.103 	 94.571
0.6233027 	 43.5029759 	 995298.9429 	 1.106 	 94.585
0.6240478 	 44.3598875 	 996358.1442 	 1.110 	 94.550
0.6247793 	 45.2396203 	 997388.1959 	 1.112 	 94.521
0.6254971 	 46.1433069 	 998173.0737 	 1.115 	 94.508
0.6262013 	 47.0649968 	 998672.6345 	 1.118 	 94.474
0.6268916 	 47.9963673 	 999106.3025 	 1.120 	 94.463
0.6275695 	 48.9789723 	 999110.3028 	 1.124 	 94.456
0.6282338 	 49.9594036 	 999524.0829 	 1.126 	 94.443
0.6288857 	 50.9473440 	 999704.0339 	 1.129 	 94.393
0.6295253 	 51.9850841 	 999716.0313 	 1.132 	 94.399
