N=100 	 R=1000000 	 s=1 	 Save [density, Z, rho_t, like/unlike, events per sweep]
0.0001343 	 1.0005107 	 1.1027 	 1.011 	 10.124
0.0132567 	 1.1625750 	 12.2493 	 0.950 	 46.814
0.0260740 	 1.1527696 	 22.8266 	 1.005 	 78.923
0.0384966 	 1.1917990 	 33.3622 	 1.013 	 88.250
0.0505150 	 1.2395777 	 43.7877 	 1.016 	 92.028
0.0621586 	 1.2921215 	 54.3729 	 1.018 	 93.794
0.0734640 	 1.3482399 	 64.9111 	 1.019 	 94.792
0.0844203 	 1.4075590 	 75.2205 	 1.020 	 95.257
0.0950714 	 1.4695944 	 85.7905 	 1.021 	 95.513
0.1054100 	 1.5337236 	 96.1433 	 1.022 	 95.675
0.1154530 	 1.6001931 	 106.2443 	 1.023 	 95.746
0.1252192 	 1.6687010 	 116.8298 	 1.024 	 95.822
0.1347164 	 1.7389523 	 126.6187 	 1.026 	 95.849
0.1439554 	 1.8101907 	 136.9372 	 1.027 	 95.886
0.1529467 	 1.8843201 	 146.6850 	 1.028 	 95.856
0.1616984 	 1.9595441 	 157.8957 	 1.030 	 95.807
0.1702276 	 2.0370624 	 169.1583 	 1.031 	 95.826
0.1785322 	 2.1157758 	 179.6186 	 1.032 	 95.770
0.1866385 	 2.1960884 	 188.6300 	 1.034 	 95.774
0.1945458 	 2.2782462 	 199.5649 	 1.035 	 95.747
0.2022560 	 2.3619822 	 210.8696 	 1.036 	 95.724
0.2097824 	 2.4470767 	 219.5768 	 1.038 	 95.732
0.2171303 	 2.5339469 	 229.2289 	 1.038 	 95.696
0.2243038 	 2.6229431 	 240.2795 	 1.039 	 95.730
0.2313110 	 2.7120763 	 249.7396 	 1.041 	 95.654
0.2381599 	 2.8044990 	 259.7980 	 1.042 	 95.660
0.2448597 	 2.8972555 	 269.6987 	 1.044 	 95.624
0.2514052 	 2.9914225 	 280.8403 	 1.044 	 95.582
0.2578099 	 3.0889115 	 288.7759 	 1.045 	 95.633
0.2640745 	 3.1858493 	 299.2198 	 1.046 	 95.555
0.2702030 	 3.2853389 	 309.6258 	 1.048 	 95.574
0.2762066 	 3.3867398 	 321.7515 	 1.049 	 95.608
0.2820833 	 3.4890407 	 330.1124 	 1.050 	 95.559
0.2878307 	 3.5924207 	 342.1414 	 1.051 	 95.520
0.2934670 	 3.6981575 	 351.9936 	 1.052 	 95.534
0.2989929 	 3.8057239 	 364.0692 	 1.053 	 95.520
0.3044093 	 3.9126705 	 375.4531 	 1.054 	 95.482
0.3097133 	 4.0241594 	 387.7390 	 1.055 	 95.518
0.3149157 	 4.1347766 	 397.5046 	 1.055 	 95.482
0.3200220 	 4.2476461 	 404.1623 	 1.057 	 95.464
0.3250294 	 4.3618144 	 414.0247 	 1.057 	 95.436
0.3299429 	 4.4775956 	 422.0789 	 1.059 	 95.452
0.3347601 	 4.5952250 	 430.7997 	 1.060 	 95.419
0.3394879 	 4.7147726 	 440.8826 	 1.061 	 95.454
0.3441364 	 4.8344612 	 450.9738 	 1.061 	 95.435
0.3486994 	 4.9558367 	 465.0079 	 1.062 	 95.400
0.3531787 	 5.0782597 	 479.4959 	 1.063 	 95.407
0.3575799 	 5.2026760 	 492.5524 	 1.064 	 95.350
0.3619027 	 5.3295278 	 500.8426 	 1.065 	 95.367
0.3661538 	 5.4573714 	 512.9361 	 1.066 	 95.358
0.3703309 	 5.5876987 	 521.5750 	 1.067 	 95.386
0.3744374 	 5.7169761 	 527.7099 	 1.067 	 95.344
0.3784774 	 5.8482184 	 538.4956 	 1.068 	 95.329
0.3824494 	 5.9827014 	 547.7667 	 1.069 	 95.336
0.3863558 	 6.1169246 	 556.4465 	 1.069 	 95.319
0.3901977 	 6.2536429 	 567.8498 	 1.071 	 95.299
0.3939793 	 6.3895129 	 574.7586 	 1.071 	 95.285
0.3976971 	 6.5288435 	 583.8352 	 1.072 	 95.271
0.4013594 	 6.6709666 	 595.4586 	 1.072 	 95.296
0.4049607 	 6.8110694 	 602.6256 	 1.073 	 95.255
0.4085078 	 6.9551561 	 609.4285 	 1.074 	 95.257
0.4120007 	 7.1006124 	 622.5398 	 1.074 	 95.258
0.4154380 	 7.2455887 	 630.1772 	 1.075 	 95.249
0.4188253 	 7.3912935 	 634.2628 	 1.075 	 95.217
0.4221610 	 7.5411970 	 643.1713 	 1.076 	 95.227
0.4254457 	 7.6906759 	 653.9258 	 1.076 	 95.216
0.4286836 	 7.8419022 	 667.1489 	 1.077 	 95.197
0.4318753 	 7.9961218 	 678.7017 	 1.078 	 95.214
0.4350202 	 8.1506795 	 684.7678 	 1.078 	 95.211
0.4381161 	 8.3068508 	 698.6783 	 1.078 	 95.199
0.4411706 	 8.4643011 	 708.9471 	 1.080 	 95.206
0.4441808 	 8.6212702 	 720.4510 	 1.080 	 95.191
0.4471491 	 8.7804561 	 729.9371 	 1.081 	 95.185
0.4500741 	 8.9429263 	 743.3483 	 1.081 	 95.200
0.4529602 	 9.1027850 	 753.3315 	 1.081 	 95.150
0.4558095 	 9.2665314 	 763.8567 	 1.081 	 95.154
0.4586179 	 9.4337441 	 778.3485 	 1.082 	 95.153
0.4613914 	 9.5983684 	 788.5964 	 1.082 	 95.106
0.4641241 	 9.7658809 	 800.1540 	 1.082 	 95.140
0.4668233 	 9.9361126 	 812.1635 	 1.083 	 95.143
0.4694864 	 10.1058626 	 830.2135 	 1.083 	 95.121
0.4721131 	 10.2785227 	 845.1085 	 1.084 	 95.112
0.4747071 	 10.4496962 	 856.3087 	 1.083 	 95.116
0.4772644 	 10.6252301 	 866.7432 	 1.084 	 95.096
0.4797902 	 10.8017424 	 872.2124 	 1.084 	 95.105
0.4822862 	 10.9793695 	 879.1646 	 1.085 	 95.102
0.4847481 	 11.1585584 	 897.0573 	 1.085 	 95.094
0.4871801 	 11.3378214 	 909.0477 	 1.086 	 95.101
0.4895822 	 11.5193497 	 919.8148 	 1.086 	 95.092
0.4919549 	 11.7015015 	 925.6678 	 1.086 	 95.065
0.4942983 	 11.8841898 	 943.1405 	 1.086 	 95.084
0.4966114 	 12.0679395 	 948.3245 	 1.086 	 95.040
0.4988993 	 12.2537589 	 953.5489 	 1.086 	 95.055
0.5011578 	 12.4432956 	 968.8605 	 1.087 	 95.041
0.5033913 	 12.6312346 	 979.7510 	 1.086 	 95.045
0.5055996 	 12.8252313 	 989.1497 	 1.087 	 95.056
0.5077800 	 13.0189302 	 997.9715 	 1.088 	 95.050
0.5099349 	 13.2104504 	 1010.3803 	 1.088 	 95.021
0.5120634 	 13.4063459 	 1019.4171 	 1.088 	 95.015
0.5141683 	 13.6049155 	 1022.5853 	 1.088 	 95.012
0.5162483 	 13.8007450 	 1034.4836 	 1.088 	 95.025
0.5183049 	 14.0011119 	 1040.1172 	 1.088 	 95.020
0.5203387 	 14.1965143 	 1043.0092 	 1.088 	 94.982
0.5223493 	 14.3998953 	 1054.3685 	 1.087 	 95.002
0.5243373 	 14.5988352 	 1068.0307 	 1.087 	 94.961
0.5263040 	 14.8096774 	 1082.8097 	 1.088 	 94.992
0.5282461 	 15.0112327 	 1094.5288 	 1.088 	 94.960
0.5301695 	 15.2237616 	 1113.6725 	 1.088 	 94.974
0.5320715 	 15.4344047 	 1130.6904 	 1.087 	 94.977
0.5339529 	 15.6396732 	 1146.3875 	 1.087 	 94.958
0.5358133 	 15.8567098 	 1165.0200 	 1.088 	 94.952
0.5376545 	 16.0725889 	 1175.8550 	 1.087 	 94.973
0.5394761 	 16.2846584 	 1197.5382 	 1.086 	 94.948
0.5412771 	 16.5026572 	 1219.1764 	 1.087 	 94.941
0.5430603 	 16.7172480 	 1234.3880 	 1.086 	 94.946
0.5448222 	 16.9334686 	 1267.1655 	 1.085 	 94.911
0.5465656 	 17.1516895 	 1296.0219 	 1.085 	 94.908
0.5482916 	 17.3717067 	 1341.2728 	 1.085 	 94.920
0.5499997 	 17.6011880 	 1394.4204 	 1.085 	 94.915
0.5516891 	 17.8242244 	 1464.3949 	 1.084 	 94.918
0.5533614 	 18.0409209 	 1597.7865 	 1.084 	 94.883
0.5550187 	 18.2701952 	 1757.3220 	 1.084 	 94.908
0.5566588 	 18.4984350 	 1995.9163 	 1.084 	 94.920
0.5582819 	 18.7247046 	 2348.5265 	 1.084 	 94.912
0.5598907 	 18.9479422 	 2906.6693 	 1.083 	 94.888
0.5614823 	 19.1749960 	 3713.9912 	 1.083 	 94.887
0.5630580 	 19.4062899 	 4953.5381 	 1.082 	 94.885
0.5646192 	 19.6318157 	 6705.7729 	 1.082 	 94.873
0.5661659 	 19.8672298 	 9016.2786 	 1.081 	 94.898
0.5676974 	 20.0968777 	 12006.2660 	 1.081 	 94.858
0.5692144 	 20.3277428 	 15886.2180 	 1.080 	 94.871
0.5707186 	 20.5658303 	 20530.7343 	 1.079 	 94.870
0.5722086 	 20.8000652 	 26473.2501 	 1.078 	 94.877
0.5736845 	 21.0409217 	 33085.8746 	 1.076 	 94.851
0.5751453 	 21.2959618 	 40101.5902 	 1.075 	 94.872
0.5765924 	 21.5501285 	 48448.5061 	 1.073 	 94.884
0.5780240 	 21.8205567 	 56536.3522 	 1.070 	 94.884
0.5794403 	 22.0925662 	 65478.4546 	 1.067 	 94.873
0.5808425 	 22.3827225 	 74457.5625 	 1.062 	 94.887
0.5822282 	 22.6756256 	 84501.6541 	 1.057 	 94.869
0.5835980 	 22.9832160 	 95786.3848 	 1.051 	 94.832
0.5849518 	 23.2988260 	 109018.3795 	 1.044 	 94.840
0.5862892 	 23.6262788 	 125796.7080 	 1.038 	 94.861
0.5876104 	 23.9604644 	 146717.4382 	 1.030 	 94.814
0.5889146 	 24.3119122 	 171461.6826 	 1.023 	 94.822
0.5902026 	 24.6811019 	 199658.1116 	 1.016 	 94.824
0.5914730 	 25.0420803 	 231868.8133 	 1.009 	 94.800
0.5927255 	 25.4163041 	 265920.4680 	 1.003 	 94.759
0.5939612 	 25.8203776 	 302779.3306 	 0.997 	 94.757
0.5951797 	 26.2261898 	 341971.0172 	 0.991 	 94.757
0.5963816 	 26.6417609 	 382343.9657 	 0.987 	 94.731
0.5975656 	 27.0736916 	 423468.5522 	 0.983 	 94.717
0.5987322 	 27.5112679 	 462465.3006 	 0.980 	 94.685
0.5998813 	 27.9673667 	 495344.0239 	 0.977 	 94.691
0.6010138 	 28.4262279 	 526304.1136 	 0.977 	 94.631
0.6021290 	 28.8967550 	 557130.2981 	 0.976 	 94.601
0.6032271 	 29.3890769 	 580987.0868 	 0.976 	 94.614
0.6043080 	 29.8800777 	 602963.9602 	 0.977 	 94.570
0.6053731 	 30.3926468 	 621033.5906 	 0.978 	 94.567
0.6064214 	 30.8887836 	 640416.1812 	 0.980 	 94.512
0.6074534 	 31.4159405 	 658595.4684 	 0.983 	 94.511
0.6084703 	 31.9328040 	 674050.3523 	 0.987 	 94.452
0.6094718 	 32.4656632 	 685764.6012 	 0.990 	 94.401
0.6104573 	 33.0154673 	 704619.9326 	 0.993 	 94.403
0.6114274 	 33.5547907 	 719931.5604 	 0.997 	 94.370
0.6123836 	 34.1091321 	 734335.8062 	 1.001 	 94.328
0.6133247 	 34.6796956 	 751761.8906 	 1.005 	 94.310
0.6142525 	 35.2472172 	 770509.0005 	 1.009 	 94.240
0.6151652 	 35.8483528 	 786206.5040 	 1.013 	 94.212
0.6160629 	 36.4656775 	 803959.3669 	 1.017 	 94.159
0.6169467 	 37.1051607 	 821451.7721 	 1.021 	 94.125
0.6178159 	 37.7674417 	 838224.7546 	 1.024 	 94.094
0.6186705 	 38.4675223 	 853024.2841 	 1.027 	 94.100
0.6195101 	 39.1744387 	 868505.1190 	 1.030 	 94.047
0.6203345 	 39.9026390 	 882603.9411 	 1.032 	 93.992
0.6211444 	 40.6604561 	 895906.3835 	 1.035 	 93.943
0.6219401 	 41.4435138 	 909312.6168 	 1.038 	 93.931
0.6227221 	 42.2649689 	 918545.9422 	 1.040 	 93.897
0.6234892 	 43.0928174 	 928203.5168 	 1.042 	 93.870
0.6242425 	 43.9533227 	 935551.6695 	 1.045 	 93.804
0.6249807 	 44.8249646 	 942671.6258 	 1.047 	 93.794
0.6257046 	 45.7301309 	 949241.0027 	 1.049 	 93.788
0.6264148 	 46.6535761 	 954482.9646 	 1.052 	 93.753
0.6271114 	 47.5903796 	 960544.5832 	 1.054 	 93.712
0.6277948 	 48.5650204 	 963790.4564 	 1.057 	 93.675
0.6284650 	 49.5559598 	 967774.3472 	 1.059 	 93.663
0.6291227 	 50.5866628 	 972343.3218 	 1.061 	 93.628
0.6297675 	 51.6104771 	 975285.9165 	 1.064 	 93.600
