N=100 	 R=1000000 	 s=1 	 Save [density, Z, rho_t, like/unlike, events per sweep]
0.0001349 	 1.0005156 	 1.1026 	 1.003 	 10.125
0.0132481 	 1.1626065 	 12.2194 	 0.950 	 46.769
0.0260702 	 1.1527986 	 22.9419 	 1.004 	 78.908
0.0384985 	 1.1918341 	 33.3129 	 1.013 	 88.241
0.0505154 	 1.2395662 	 44.2664 	 1.016 	 92.014
0.0621599 	 1.2920697 	 54.7869 	 1.017 	 93.768
0.0734603 	 1.3482810 	 64.9693 	 1.019 	 94.750
0.0844185 	 1.4075163 	 75.9845 	 1.019 	 95.248
0.0950696 	 1.4694999 	 85.7367 	 1.021 	 95.516
0.1054086 	 1.5337613 	 95.2675 	 1.022 	 95.672
0.1154494 	 1.6000123 	 105.8244 	 1.024 	 95.738
0.1252105 	 1.6683208 	 116.5248 	 1.025 	 95.783
0.1347078 	 1.7384422 	 127.4823 	 1.026 	 95.788
0.1439411 	 1.8102246 	 137.5020 	 1.027 	 95.881
0.1529387 	 1.8841269 	 147.4712 	 1.029 	 95.873
0.1616982 	 1.9595394 	 157.0927 	 1.029 	 95.824
0.1702292 	 2.0369552 	 169.3827 	 1.031 	 95.796
0.1785407 	 2.1159730 	 180.3489 	 1.032 	 95.790
0.1866477 	 2.1962803 	 191.4968 	 1.034 	 95.765
0.1945541 	 2.2783572 	 202.5304 	 1.035 	 95.754
0.2022673 	 2.3620398 	 212.6413 	 1.036 	 95.752
0.2097925 	 2.4473903 	 222.5164 	 1.037 	 95.703
0.2171350 	 2.5341767 	 233.5835 	 1.038 	 95.694
0.2243097 	 2.6228821 	 242.8083 	 1.040 	 95.678
0.2313173 	 2.7125615 	 252.5355 	 1.041 	 95.664
0.2381685 	 2.8042646 	 262.5023 	 1.042 	 95.642
0.2448621 	 2.8974998 	 274.5951 	 1.043 	 95.645
0.2514110 	 2.9924092 	 286.4530 	 1.045 	 95.627
0.2578151 	 3.0884465 	 294.9599 	 1.045 	 95.615
0.2640844 	 3.1866839 	 306.7103 	 1.047 	 95.610
0.2702196 	 3.2851500 	 318.4518 	 1.048 	 95.543
0.2762206 	 3.3862447 	 331.1116 	 1.049 	 95.576
0.2820956 	 3.4891509 	 342.9006 	 1.050 	 95.550
0.2878521 	 3.5930309 	 351.5889 	 1.050 	 95.554
0.2934906 	 3.6987970 	 363.0140 	 1.052 	 95.541
0.2990126 	 3.8053558 	 374.7724 	 1.053 	 95.508
0.3044291 	 3.9136564 	 385.2032 	 1.054 	 95.494
0.3097339 	 4.0238894 	 394.7867 	 1.054 	 95.490
0.3149379 	 4.1348057 	 407.5523 	 1.056 	 95.475
0.3200445 	 4.2473564 	 419.5218 	 1.057 	 95.480
0.3250540 	 4.3618819 	 431.0594 	 1.057 	 95.437
0.3299668 	 4.4786168 	 441.2490 	 1.059 	 95.440
0.3347844 	 4.5965920 	 451.8319 	 1.059 	 95.448
0.3395168 	 4.7147752 	 459.2588 	 1.061 	 95.439
0.3441625 	 4.8346425 	 469.9218 	 1.062 	 95.395
0.3487228 	 4.9563936 	 478.7706 	 1.063 	 95.407
0.3532053 	 5.0796044 	 491.5693 	 1.063 	 95.377
0.3576096 	 5.2049386 	 503.7019 	 1.064 	 95.379
0.3619318 	 5.3301338 	 516.4773 	 1.066 	 95.367
0.3661828 	 5.4579921 	 528.0792 	 1.066 	 95.331
0.3703610 	 5.5862788 	 540.8439 	 1.067 	 95.341
0.3744643 	 5.7177557 	 549.9243 	 1.067 	 95.329
0.3784984 	 5.8512502 	 561.7580 	 1.068 	 95.350
0.3824714 	 5.9841314 	 574.9512 	 1.069 	 95.335
0.3863740 	 6.1184740 	 586.7129 	 1.070 	 95.329
0.3902164 	 6.2544897 	 594.3441 	 1.070 	 95.305
0.3939935 	 6.3925230 	 601.7277 	 1.071 	 95.283
0.3977100 	 6.5302236 	 614.9700 	 1.072 	 95.294
0.4013705 	 6.6701538 	 626.6969 	 1.072 	 95.269
0.4049718 	 6.8145986 	 637.8267 	 1.073 	 95.270
0.4085186 	 6.9558008 	 645.1263 	 1.073 	 95.243
0.4120104 	 7.1005604 	 650.9788 	 1.075 	 95.265
0.4154506 	 7.2460523 	 660.6034 	 1.075 	 95.226
0.4188378 	 7.3934350 	 667.9042 	 1.076 	 95.245
0.4221742 	 7.5423677 	 679.7515 	 1.076 	 95.220
0.4254592 	 7.6927868 	 687.5279 	 1.077 	 95.225
0.4286957 	 7.8420880 	 694.6423 	 1.077 	 95.187
0.4318859 	 7.9961103 	 705.9389 	 1.077 	 95.190
0.4350281 	 8.1496538 	 719.1654 	 1.078 	 95.195
0.4381288 	 8.3056782 	 729.8006 	 1.078 	 95.184
0.4411815 	 8.4629232 	 736.9395 	 1.079 	 95.144
0.4441926 	 8.6219988 	 748.2091 	 1.080 	 95.180
0.4471591 	 8.7813556 	 758.8600 	 1.080 	 95.190
0.4500861 	 8.9434983 	 765.3276 	 1.081 	 95.198
0.4529723 	 9.1036153 	 770.2484 	 1.082 	 95.149
0.4558188 	 9.2672122 	 785.7210 	 1.081 	 95.164
0.4586294 	 9.4334948 	 800.8934 	 1.082 	 95.154
0.4614004 	 9.5982959 	 810.2336 	 1.081 	 95.121
0.4641340 	 9.7690990 	 820.3124 	 1.083 	 95.144
0.4668317 	 9.9352504 	 833.0903 	 1.083 	 95.108
0.4694952 	 10.1080194 	 838.5382 	 1.083 	 95.104
0.4721211 	 10.2744563 	 841.6470 	 1.084 	 95.060
0.4747132 	 10.4496655 	 856.0902 	 1.084 	 95.095
0.4772722 	 10.6258073 	 862.1887 	 1.084 	 95.101
0.4797977 	 10.8020624 	 870.3241 	 1.084 	 95.086
0.4822933 	 10.9762386 	 882.5869 	 1.085 	 95.079
0.4847570 	 11.1559101 	 895.2150 	 1.085 	 95.078
0.4871902 	 11.3393528 	 906.8408 	 1.084 	 95.075
0.4895919 	 11.5178660 	 922.4581 	 1.084 	 95.072
0.4919628 	 11.7005673 	 930.4735 	 1.084 	 95.079
0.4943076 	 11.8842335 	 941.3374 	 1.085 	 95.069
0.4966221 	 12.0715161 	 948.1266 	 1.085 	 95.061
0.4989072 	 12.2571830 	 957.5076 	 1.085 	 95.069
0.5011677 	 12.4449676 	 971.9342 	 1.086 	 95.016
0.5034027 	 12.6353658 	 980.7686 	 1.086 	 95.059
0.5056077 	 12.8240039 	 999.3805 	 1.086 	 95.036
0.5077877 	 13.0158520 	 1011.4374 	 1.086 	 95.039
0.5099419 	 13.2078898 	 1018.7351 	 1.086 	 95.017
0.5120711 	 13.3993872 	 1038.7357 	 1.086 	 95.018
0.5141767 	 13.6006976 	 1044.4305 	 1.086 	 95.007
0.5162583 	 13.8004465 	 1059.2010 	 1.087 	 95.016
0.5183155 	 13.9948967 	 1065.3405 	 1.087 	 94.995
0.5203497 	 14.1964992 	 1071.7717 	 1.087 	 95.020
0.5223607 	 14.4003177 	 1081.9735 	 1.086 	 94.980
0.5243494 	 14.6041465 	 1091.4220 	 1.086 	 94.997
0.5263153 	 14.8098985 	 1103.2905 	 1.086 	 94.996
0.5282597 	 15.0128781 	 1115.8140 	 1.085 	 94.982
0.5301823 	 15.2258797 	 1130.1162 	 1.085 	 95.000
0.5320841 	 15.4338909 	 1145.4769 	 1.086 	 94.982
0.5339651 	 15.6478953 	 1156.0035 	 1.086 	 94.957
0.5358240 	 15.8579705 	 1166.2472 	 1.086 	 94.955
0.5376644 	 16.0721781 	 1177.7746 	 1.085 	 94.956
0.5394831 	 16.2823222 	 1194.0185 	 1.085 	 94.937
0.5412839 	 16.5035459 	 1212.5610 	 1.085 	 94.949
0.5430669 	 16.7230782 	 1233.5132 	 1.085 	 94.958
0.5448297 	 16.9478112 	 1253.1154 	 1.086 	 94.979
0.5465721 	 17.1629798 	 1267.4615 	 1.085 	 94.951
0.5482991 	 17.3822731 	 1287.6942 	 1.086 	 94.940
0.5500059 	 17.6085551 	 1311.1284 	 1.086 	 94.919
0.5516957 	 17.8333336 	 1332.4965 	 1.086 	 94.919
0.5533685 	 18.0619893 	 1360.9570 	 1.086 	 94.894
0.5550232 	 18.2993121 	 1391.7518 	 1.085 	 94.893
0.5566603 	 18.5316518 	 1435.1664 	 1.084 	 94.904
0.5582796 	 18.7668211 	 1483.7313 	 1.084 	 94.911
0.5598842 	 19.0052682 	 1552.3713 	 1.083 	 94.878
0.5614710 	 19.2405529 	 1636.2374 	 1.082 	 94.892
0.5630410 	 19.4890269 	 1731.5794 	 1.082 	 94.920
0.5645946 	 19.7238100 	 1851.5096 	 1.081 	 94.861
0.5661330 	 19.9812675 	 2015.3141 	 1.080 	 94.889
0.5676557 	 20.2380219 	 2213.7365 	 1.079 	 94.897
0.5691608 	 20.4896325 	 2489.0582 	 1.078 	 94.877
0.5706510 	 20.7475917 	 2841.6665 	 1.078 	 94.853
0.5721252 	 21.0200358 	 3295.6824 	 1.079 	 94.868
0.5735828 	 21.2943296 	 3834.7284 	 1.078 	 94.869
0.5750247 	 21.5764737 	 4538.1524 	 1.078 	 94.853
0.5764508 	 21.8559615 	 5405.2315 	 1.078 	 94.856
0.5778612 	 22.1385916 	 6490.4780 	 1.079 	 94.838
0.5792542 	 22.4434389 	 7729.0919 	 1.079 	 94.849
0.5806324 	 22.7449452 	 9121.7501 	 1.081 	 94.830
0.5819940 	 23.0625548 	 10668.7596 	 1.082 	 94.811
0.5833384 	 23.3887326 	 12189.6797 	 1.083 	 94.816
0.5846661 	 23.7229800 	 13914.0821 	 1.086 	 94.810
0.5859782 	 24.0564680 	 15868.3215 	 1.088 	 94.798
0.5872731 	 24.4095672 	 18019.4657 	 1.092 	 94.803
0.5885513 	 24.7647178 	 19761.4615 	 1.094 	 94.773
0.5898123 	 25.1348964 	 21849.4667 	 1.097 	 94.791
0.5910569 	 25.5123756 	 23918.4232 	 1.100 	 94.754
0.5922849 	 25.8957692 	 26305.7108 	 1.104 	 94.777
0.5934963 	 26.2956043 	 28777.7027 	 1.107 	 94.774
0.5946907 	 26.7013134 	 31315.9533 	 1.110 	 94.745
0.5958687 	 27.1109063 	 34310.4917 	 1.113 	 94.749
0.5970302 	 27.5414671 	 37825.0037 	 1.116 	 94.791
0.5981767 	 27.9739998 	 41807.2558 	 1.118 	 94.786
0.5993063 	 28.4192056 	 46320.7928 	 1.121 	 94.761
0.6004190 	 28.8812061 	 51078.9522 	 1.124 	 94.816
0.6015161 	 29.3333952 	 57373.9281 	 1.125 	 94.816
0.6025963 	 29.8115198 	 64099.0687 	 1.126 	 94.852
0.6036613 	 30.3009117 	 71018.7676 	 1.127 	 94.855
0.6047103 	 30.7841179 	 79258.5316 	 1.126 	 94.865
0.6057431 	 31.3159496 	 88150.7902 	 1.126 	 94.925
0.6067610 	 31.8212438 	 98575.7407 	 1.125 	 94.924
0.6077627 	 32.3446847 	 112026.9964 	 1.122 	 94.969
0.6087494 	 32.8799455 	 125179.9267 	 1.120 	 94.952
0.6097216 	 33.4274658 	 141890.4264 	 1.117 	 94.987
0.6106783 	 33.9845972 	 161629.1813 	 1.113 	 95.031
0.6116213 	 34.5423889 	 185885.4002 	 1.109 	 95.058
0.6125503 	 35.0868067 	 218464.2241 	 1.103 	 95.079
0.6134645 	 35.6743144 	 256876.8037 	 1.097 	 95.164
0.6143648 	 36.2349993 	 302485.1030 	 1.090 	 95.200
0.6152530 	 36.8197676 	 350979.5864 	 1.083 	 95.231
0.6161272 	 37.3964622 	 405665.7715 	 1.077 	 95.260
0.6169888 	 38.0095176 	 462454.4932 	 1.070 	 95.279
0.6178379 	 38.6395659 	 523387.7526 	 1.064 	 95.357
0.6186729 	 39.2673551 	 586259.8230 	 1.058 	 95.362
0.6194957 	 39.9117878 	 646344.4664 	 1.052 	 95.374
0.6203053 	 40.5822713 	 703757.1954 	 1.047 	 95.417
0.6211028 	 41.2984097 	 749563.2134 	 1.043 	 95.456
0.6218868 	 42.0361210 	 786564.6502 	 1.041 	 95.469
0.6226576 	 42.7997667 	 819651.8182 	 1.038 	 95.480
0.6234152 	 43.5935643 	 849652.1058 	 1.036 	 95.465
0.6241584 	 44.3871555 	 872568.2515 	 1.033 	 95.442
0.6248892 	 45.2239231 	 894607.1369 	 1.033 	 95.460
0.6256074 	 46.0932333 	 909968.8604 	 1.032 	 95.452
0.6263127 	 46.9831778 	 921854.3276 	 1.031 	 95.456
0.6270052 	 47.9008660 	 933306.9955 	 1.030 	 95.475
0.6276847 	 48.8514129 	 941208.7782 	 1.031 	 95.497
0.6283517 	 49.8060214 	 947550.8128 	 1.031 	 95.475
0.6290058 	 50.7908149 	 953615.3279 	 1.031 	 95.473
0.6296474 	 51.8031657 	 957544.8464 	 1.032 	 95.465
