N=100 	 R=1000000 	 s=1 	 Save [density, Z, rho_t, like/unlike, events per sweep]
0.0001355 	 1.0005151 	 1.1026 	 1.007 	 10.126
0.0132490 	 1.1627200 	 12.1619 	 0.950 	 46.788
0.0260760 	 1.1527942 	 22.7106 	 1.004 	 78.893
0.0384969 	 1.1918292 	 33.2251 	 1.013 	 88.267
0.0505211 	 1.2395478 	 43.8456 	 1.016 	 92.009
0.0621689 	 1.2921501 	 54.2262 	 1.018 	 93.795
0.0734742 	 1.3482715 	 65.1216 	 1.019 	 94.797
0.0844463 	 1.4076612 	 75.9756 	 1.020 	 95.223
0.0950791 	 1.4696461 	 86.0969 	 1.021 	 95.524
0.1054139 	 1.5338791 	 96.5437 	 1.023 	 95.676
0.1154526 	 1.6002928 	 106.7722 	 1.024 	 95.789
0.1252172 	 1.6683325 	 117.4183 	 1.024 	 95.796
0.1347162 	 1.7387046 	 127.8999 	 1.026 	 95.808
0.1439519 	 1.8099745 	 138.8240 	 1.027 	 95.867
0.1529440 	 1.8841292 	 149.7477 	 1.028 	 95.851
0.1617095 	 1.9597869 	 158.2972 	 1.030 	 95.815
0.1702429 	 2.0372611 	 168.3398 	 1.031 	 95.828
0.1785615 	 2.1162140 	 179.8418 	 1.032 	 95.816
0.1866689 	 2.1967117 	 190.4906 	 1.034 	 95.778
0.1945720 	 2.2784564 	 198.9370 	 1.035 	 95.761
0.2022750 	 2.3622357 	 208.9618 	 1.036 	 95.721
0.2098056 	 2.4479606 	 219.4958 	 1.038 	 95.732
0.2171583 	 2.5346762 	 229.7883 	 1.039 	 95.738
0.2243293 	 2.6227980 	 239.5234 	 1.039 	 95.703
0.2313410 	 2.7129029 	 250.2982 	 1.041 	 95.665
0.2381919 	 2.8048683 	 260.6028 	 1.043 	 95.653
0.2448829 	 2.8977882 	 269.1635 	 1.042 	 95.634
0.2514314 	 2.9928421 	 280.2051 	 1.045 	 95.646
0.2578332 	 3.0891718 	 291.8855 	 1.046 	 95.609
0.2640949 	 3.1866710 	 302.2256 	 1.047 	 95.596
0.2702244 	 3.2857010 	 312.4241 	 1.048 	 95.576
0.2762238 	 3.3863611 	 321.4674 	 1.049 	 95.556
0.2820992 	 3.4895245 	 330.4549 	 1.049 	 95.574
0.2878513 	 3.5932036 	 340.6016 	 1.051 	 95.554
0.2934861 	 3.6982747 	 353.0453 	 1.052 	 95.533
0.2990091 	 3.8050279 	 365.7445 	 1.052 	 95.517
0.3044217 	 3.9141324 	 372.3792 	 1.054 	 95.519
0.3097308 	 4.0240133 	 380.7606 	 1.055 	 95.506
0.3149333 	 4.1348606 	 394.3276 	 1.056 	 95.477
0.3200321 	 4.2481847 	 406.0892 	 1.057 	 95.469
0.3250385 	 4.3631699 	 415.2134 	 1.058 	 95.477
0.3299460 	 4.4782845 	 423.2076 	 1.059 	 95.464
0.3347616 	 4.5949196 	 434.3447 	 1.060 	 95.435
0.3394979 	 4.7142642 	 448.2644 	 1.060 	 95.439
0.3441432 	 4.8344552 	 456.7706 	 1.062 	 95.421
0.3487077 	 4.9559881 	 469.0008 	 1.062 	 95.386
0.3531908 	 5.0789340 	 481.0043 	 1.063 	 95.386
0.3575944 	 5.2038250 	 490.3368 	 1.064 	 95.387
0.3619193 	 5.3293282 	 501.2832 	 1.065 	 95.350
0.3661676 	 5.4583343 	 508.4150 	 1.066 	 95.373
0.3703476 	 5.5862852 	 517.0538 	 1.066 	 95.352
0.3744516 	 5.7169314 	 527.6442 	 1.067 	 95.335
0.3784864 	 5.8481374 	 533.8639 	 1.068 	 95.316
0.3824594 	 5.9814915 	 543.7375 	 1.069 	 95.295
0.3863672 	 6.1153501 	 555.8774 	 1.069 	 95.314
0.3902078 	 6.2527210 	 567.2681 	 1.070 	 95.282
0.3939859 	 6.3930256 	 578.4547 	 1.071 	 95.315
0.3977051 	 6.5277503 	 585.9195 	 1.073 	 95.239
0.4013630 	 6.6705896 	 600.0374 	 1.073 	 95.268
0.4049649 	 6.8107915 	 610.9128 	 1.073 	 95.271
0.4085120 	 6.9541090 	 619.8166 	 1.074 	 95.240
0.4120034 	 7.0993736 	 623.4062 	 1.075 	 95.249
0.4154411 	 7.2449285 	 633.3491 	 1.075 	 95.258
0.4188281 	 7.3930617 	 645.6066 	 1.076 	 95.238
0.4221635 	 7.5417817 	 656.1619 	 1.077 	 95.247
0.4254493 	 7.6926211 	 667.9656 	 1.078 	 95.210
0.4286873 	 7.8416704 	 677.8892 	 1.077 	 95.198
0.4318788 	 7.9977784 	 688.8535 	 1.078 	 95.201
0.4350221 	 8.1506418 	 699.7931 	 1.078 	 95.199
0.4381225 	 8.3076366 	 711.4767 	 1.079 	 95.208
0.4411759 	 8.4639128 	 727.0155 	 1.079 	 95.194
0.4441831 	 8.6200191 	 734.9072 	 1.080 	 95.181
0.4471506 	 8.7790127 	 744.6829 	 1.080 	 95.142
0.4500770 	 8.9415428 	 757.9722 	 1.080 	 95.178
0.4529649 	 9.1072235 	 767.9139 	 1.081 	 95.185
0.4558112 	 9.2683384 	 779.8346 	 1.082 	 95.134
0.4586198 	 9.4306113 	 792.4533 	 1.081 	 95.163
0.4613908 	 9.5992930 	 808.2062 	 1.082 	 95.152
0.4641262 	 9.7650732 	 816.4274 	 1.083 	 95.108
0.4668249 	 9.9339929 	 823.7547 	 1.083 	 95.119
0.4694864 	 10.1046074 	 832.5739 	 1.083 	 95.123
0.4721144 	 10.2816063 	 835.9924 	 1.084 	 95.142
0.4747063 	 10.4534759 	 840.6032 	 1.085 	 95.125
0.4772670 	 10.6259638 	 845.3452 	 1.085 	 95.067
0.4797947 	 10.8004863 	 861.2667 	 1.085 	 95.096
0.4822900 	 10.9793119 	 868.9264 	 1.085 	 95.100
0.4847557 	 11.1592239 	 882.0050 	 1.084 	 95.086
0.4871895 	 11.3373117 	 889.8604 	 1.085 	 95.088
0.4895935 	 11.5188015 	 900.8567 	 1.086 	 95.083
0.4919671 	 11.6987183 	 911.4017 	 1.085 	 95.046
0.4943118 	 11.8847711 	 926.6187 	 1.085 	 95.050
0.4966271 	 12.0670525 	 934.2034 	 1.085 	 95.046
0.4989166 	 12.2563630 	 937.5623 	 1.085 	 95.032
0.5011768 	 12.4460004 	 950.4684 	 1.087 	 95.062
0.5034095 	 12.6345446 	 954.8907 	 1.087 	 95.055
0.5056162 	 12.8215040 	 965.9547 	 1.087 	 95.040
0.5077953 	 13.0198596 	 979.0749 	 1.088 	 95.034
0.5099510 	 13.2109646 	 987.2367 	 1.087 	 95.040
0.5120812 	 13.4042399 	 1003.0089 	 1.087 	 95.031
0.5141868 	 13.6021553 	 1019.2228 	 1.086 	 95.009
0.5162682 	 13.7990633 	 1023.6765 	 1.088 	 95.009
0.5183252 	 14.0019957 	 1045.6691 	 1.087 	 95.016
0.5203582 	 14.1991136 	 1057.7498 	 1.088 	 95.001
0.5223703 	 14.4019741 	 1069.2303 	 1.088 	 94.997
0.5243563 	 14.6049381 	 1084.8255 	 1.088 	 95.004
0.5263220 	 14.8134437 	 1078.2366 	 1.087 	 95.027
0.5282658 	 15.0141630 	 1093.3837 	 1.087 	 94.996
0.5301883 	 15.2237780 	 1117.6246 	 1.088 	 95.004
0.5320897 	 15.4342604 	 1132.8549 	 1.088 	 95.004
0.5339712 	 15.6420061 	 1152.3660 	 1.087 	 94.953
0.5358312 	 15.8576069 	 1175.5701 	 1.088 	 94.982
0.5376718 	 16.0710613 	 1185.9771 	 1.088 	 94.954
0.5394909 	 16.2838320 	 1217.2102 	 1.088 	 94.936
0.5412937 	 16.4953804 	 1241.4956 	 1.088 	 94.951
0.5430753 	 16.7193207 	 1250.8492 	 1.088 	 94.931
0.5448377 	 16.9425825 	 1264.8337 	 1.087 	 94.965
0.5465809 	 17.1670525 	 1287.9321 	 1.088 	 94.919
0.5483074 	 17.3825655 	 1312.6293 	 1.087 	 94.919
0.5500141 	 17.6079052 	 1337.7043 	 1.087 	 94.928
0.5517033 	 17.8335999 	 1388.4896 	 1.087 	 94.906
0.5533757 	 18.0648218 	 1434.6776 	 1.087 	 94.912
0.5550310 	 18.2885296 	 1495.2435 	 1.085 	 94.905
0.5566708 	 18.5134598 	 1555.3431 	 1.085 	 94.898
0.5582928 	 18.7466310 	 1622.5405 	 1.084 	 94.889
0.5598987 	 18.9737870 	 1718.0997 	 1.085 	 94.876
0.5614879 	 19.2159472 	 1885.0228 	 1.084 	 94.921
0.5630625 	 19.4535830 	 2088.3423 	 1.084 	 94.889
0.5646189 	 19.6995826 	 2386.5246 	 1.083 	 94.900
0.5661590 	 19.9486836 	 2804.7004 	 1.083 	 94.888
0.5676846 	 20.1938924 	 3447.6130 	 1.082 	 94.879
0.5691933 	 20.4419189 	 4337.2241 	 1.082 	 94.907
0.5706873 	 20.6862956 	 5687.0991 	 1.082 	 94.894
0.5721673 	 20.9406013 	 7481.6307 	 1.081 	 94.895
0.5736309 	 21.1943255 	 10076.1681 	 1.079 	 94.878
0.5750804 	 21.4689699 	 13523.9154 	 1.078 	 94.890
0.5765148 	 21.7402953 	 18164.6354 	 1.077 	 94.909
0.5779328 	 22.0194166 	 23885.4532 	 1.074 	 94.926
0.5793351 	 22.3000978 	 31004.9867 	 1.073 	 94.924
0.5807218 	 22.5859343 	 39165.4789 	 1.070 	 94.915
0.5820931 	 22.8968235 	 49005.6046 	 1.067 	 94.942
0.5834488 	 23.2163075 	 59780.3852 	 1.064 	 94.935
0.5847869 	 23.5461136 	 72994.1360 	 1.061 	 94.954
0.5861102 	 23.8838754 	 85839.8576 	 1.058 	 94.939
0.5874159 	 24.2386139 	 98258.1763 	 1.056 	 94.963
0.5887040 	 24.5950902 	 113669.4300 	 1.053 	 94.918
0.5899747 	 24.9768995 	 127280.7209 	 1.051 	 94.926
0.5912278 	 25.3666320 	 141330.5203 	 1.049 	 94.910
0.5924627 	 25.7826835 	 153608.1720 	 1.048 	 94.898
0.5936804 	 26.2030805 	 167245.2051 	 1.046 	 94.892
0.5948792 	 26.6402279 	 178586.1584 	 1.045 	 94.890
0.5960614 	 27.0844219 	 190598.1521 	 1.043 	 94.890
0.5972244 	 27.5298196 	 199255.8241 	 1.042 	 94.823
0.5983708 	 27.9983755 	 207719.2059 	 1.042 	 94.824
0.5994972 	 28.4887395 	 215711.9219 	 1.043 	 94.834
0.6006066 	 28.9856056 	 220208.3920 	 1.043 	 94.838
0.6016984 	 29.4810099 	 225823.6537 	 1.042 	 94.826
0.6027731 	 29.9874067 	 230593.6461 	 1.042 	 94.805
0.6038308 	 30.5042640 	 234551.0675 	 1.043 	 94.781
0.6048724 	 31.0398534 	 236426.6637 	 1.044 	 94.797
0.6058972 	 31.5810110 	 239163.7189 	 1.046 	 94.775
0.6069055 	 32.1306237 	 242832.8718 	 1.047 	 94.762
0.6078968 	 32.6952936 	 246739.4079 	 1.048 	 94.782
0.6088722 	 33.2595687 	 250669.5367 	 1.050 	 94.753
0.6098322 	 33.8291350 	 254434.7530 	 1.052 	 94.753
0.6107773 	 34.4156877 	 259940.3775 	 1.054 	 94.752
0.6117071 	 35.0117988 	 267250.7833 	 1.056 	 94.745
0.6126215 	 35.6264232 	 273368.1674 	 1.058 	 94.728
0.6135217 	 36.2454302 	 278008.3150 	 1.062 	 94.708
0.6144075 	 36.8763120 	 281654.4727 	 1.065 	 94.744
0.6152780 	 37.5178996 	 285846.8656 	 1.069 	 94.719
0.6161351 	 38.1860778 	 286717.9585 	 1.074 	 94.724
0.6169780 	 38.8475745 	 288623.0114 	 1.078 	 94.693
0.6178065 	 39.5518544 	 284986.7624 	 1.084 	 94.722
0.6186217 	 40.2398183 	 282318.8660 	 1.089 	 94.721
0.6194238 	 40.9441172 	 276747.2342 	 1.096 	 94.711
0.6202126 	 41.6620532 	 268677.7527 	 1.104 	 94.724
0.6209882 	 42.3776942 	 261793.4554 	 1.112 	 94.673
0.6217511 	 43.1161398 	 255364.1505 	 1.121 	 94.659
0.6225022 	 43.8711597 	 251413.6662 	 1.132 	 94.676
0.6232417 	 44.6033508 	 253608.5219 	 1.144 	 94.663
0.6239691 	 45.3400221 	 263178.0433 	 1.156 	 94.621
0.6246854 	 46.0841872 	 283777.7294 	 1.169 	 94.606
0.6253903 	 46.8453372 	 315723.6197 	 1.184 	 94.613
0.6260847 	 47.6002888 	 360894.4106 	 1.200 	 94.574
0.6267687 	 48.3663225 	 417834.2734 	 1.216 	 94.552
0.6274428 	 49.1482086 	 485402.9496 	 1.232 	 94.533
0.6281064 	 49.9350292 	 561878.6469 	 1.248 	 94.465
0.6287595 	 50.7957377 	 633018.4344 	 1.262 	 94.459
0.6294020 	 51.6752088 	 705078.2027 	 1.277 	 94.401
