N=100 	 R=1000000 	 s=1 	 Save [density, Z, rho_t, like/unlike, events per sweep]
0.0001350 	 1.0005143 	 1.1029 	 1.016 	 10.125
0.0132576 	 1.1626542 	 12.2816 	 0.951 	 46.793
0.0260847 	 1.1528334 	 22.9610 	 1.005 	 78.924
0.0385030 	 1.1918492 	 33.4332 	 1.013 	 88.229
0.0505221 	 1.2395771 	 43.8427 	 1.016 	 92.007
0.0621659 	 1.2921973 	 54.4287 	 1.017 	 93.819
0.0734693 	 1.3483351 	 64.5594 	 1.019 	 94.764
0.0844339 	 1.4076456 	 74.2253 	 1.019 	 95.251
0.0950701 	 1.4695371 	 84.5612 	 1.021 	 95.524
0.1053994 	 1.5336509 	 95.0251 	 1.022 	 95.663
0.1154393 	 1.6000695 	 105.2139 	 1.024 	 95.757
0.1252015 	 1.6682043 	 116.5441 	 1.024 	 95.781
0.1346984 	 1.7386169 	 126.9875 	 1.026 	 95.820
0.1439371 	 1.8100609 	 136.9255 	 1.027 	 95.870
0.1529358 	 1.8841620 	 148.1234 	 1.028 	 95.871
0.1616972 	 1.9595616 	 159.3784 	 1.029 	 95.806
0.1702261 	 2.0367086 	 169.4695 	 1.031 	 95.801
0.1785433 	 2.1160114 	 180.6042 	 1.032 	 95.793
0.1866503 	 2.1964386 	 189.9089 	 1.033 	 95.772
0.1945589 	 2.2785992 	 199.9029 	 1.036 	 95.752
0.2022703 	 2.3624254 	 209.8476 	 1.036 	 95.739
0.2097967 	 2.4472984 	 220.0895 	 1.037 	 95.725
0.2171477 	 2.5341537 	 229.7851 	 1.038 	 95.716
0.2243187 	 2.6228797 	 241.5119 	 1.039 	 95.686
0.2313287 	 2.7131681 	 251.2548 	 1.041 	 95.685
0.2381763 	 2.8045704 	 262.8137 	 1.042 	 95.650
0.2448693 	 2.8974936 	 272.1355 	 1.044 	 95.641
0.2514144 	 2.9923737 	 281.6689 	 1.044 	 95.599
0.2578160 	 3.0887174 	 291.6692 	 1.045 	 95.617
0.2640838 	 3.1862911 	 301.4666 	 1.046 	 95.592
0.2702108 	 3.2854392 	 312.3170 	 1.047 	 95.585
0.2762102 	 3.3864773 	 323.6323 	 1.048 	 95.594
0.2820829 	 3.4883653 	 333.6390 	 1.050 	 95.549
0.2878362 	 3.5930373 	 345.0642 	 1.051 	 95.555
0.2934728 	 3.6982890 	 357.0885 	 1.052 	 95.562
0.2989967 	 3.8056913 	 366.0620 	 1.053 	 95.535
0.3044124 	 3.9134798 	 378.6118 	 1.054 	 95.512
0.3097202 	 4.0231630 	 386.6120 	 1.055 	 95.495
0.3149268 	 4.1344700 	 393.7483 	 1.056 	 95.475
0.3200291 	 4.2482158 	 407.0835 	 1.057 	 95.464
0.3250331 	 4.3618483 	 418.2072 	 1.058 	 95.464
0.3299426 	 4.4773402 	 427.6192 	 1.059 	 95.428
0.3347652 	 4.5958069 	 438.4340 	 1.060 	 95.447
0.3394987 	 4.7132599 	 450.4378 	 1.060 	 95.391
0.3441441 	 4.8342840 	 458.9754 	 1.061 	 95.396
0.3487071 	 4.9561350 	 471.2104 	 1.062 	 95.387
0.3531865 	 5.0806665 	 481.8633 	 1.063 	 95.402
0.3575895 	 5.2043662 	 490.8197 	 1.065 	 95.378
0.3619160 	 5.3306782 	 500.6460 	 1.065 	 95.360
0.3661663 	 5.4580448 	 508.9501 	 1.065 	 95.373
0.3703430 	 5.5873379 	 517.9391 	 1.066 	 95.324
0.3744478 	 5.7173446 	 528.5102 	 1.068 	 95.339
0.3784847 	 5.8498212 	 534.4954 	 1.069 	 95.322
0.3824525 	 5.9823889 	 546.7776 	 1.069 	 95.345
0.3863582 	 6.1179494 	 558.6227 	 1.070 	 95.289
0.3901993 	 6.2539920 	 569.0939 	 1.070 	 95.326
0.3939780 	 6.3895639 	 578.3453 	 1.071 	 95.268
0.3976949 	 6.5284214 	 590.7941 	 1.072 	 95.273
0.4013540 	 6.6700057 	 605.2722 	 1.072 	 95.290
0.4049555 	 6.8108572 	 615.3400 	 1.073 	 95.250
0.4085010 	 6.9558745 	 620.6558 	 1.074 	 95.268
0.4119941 	 7.0990580 	 630.8867 	 1.075 	 95.273
0.4154332 	 7.2421446 	 639.2533 	 1.076 	 95.241
0.4188184 	 7.3919541 	 654.1715 	 1.076 	 95.251
0.4221505 	 7.5407010 	 664.0453 	 1.076 	 95.221
0.4254347 	 7.6906269 	 674.7669 	 1.077 	 95.225
0.4286738 	 7.8444876 	 677.6881 	 1.077 	 95.220
0.4318655 	 7.9958596 	 694.3403 	 1.078 	 95.204
0.4350082 	 8.1510640 	 703.2076 	 1.078 	 95.219
0.4381095 	 8.3040933 	 709.5327 	 1.079 	 95.169
0.4411630 	 8.4623750 	 719.3061 	 1.080 	 95.180
0.4441712 	 8.6203952 	 730.3785 	 1.080 	 95.159
0.4471426 	 8.7808482 	 740.8718 	 1.080 	 95.193
0.4500722 	 8.9412069 	 744.7348 	 1.081 	 95.156
0.4529609 	 9.1029386 	 761.0202 	 1.082 	 95.170
0.4558086 	 9.2682801 	 768.5124 	 1.082 	 95.162
0.4586174 	 9.4349082 	 781.1731 	 1.082 	 95.161
0.4613863 	 9.5980514 	 788.1855 	 1.082 	 95.154
0.4641201 	 9.7667271 	 795.5377 	 1.082 	 95.137
0.4668176 	 9.9353686 	 805.0977 	 1.083 	 95.140
0.4694798 	 10.1068000 	 824.6371 	 1.083 	 95.136
0.4721080 	 10.2775124 	 834.5748 	 1.083 	 95.126
0.4747018 	 10.4509078 	 845.0555 	 1.083 	 95.110
0.4772613 	 10.6221250 	 846.6091 	 1.084 	 95.064
0.4797881 	 10.8001555 	 854.0618 	 1.084 	 95.098
0.4822856 	 10.9786662 	 864.1513 	 1.085 	 95.095
0.4847480 	 11.1566664 	 874.3835 	 1.086 	 95.099
0.4871821 	 11.3362452 	 881.7220 	 1.086 	 95.063
0.4895861 	 11.5191965 	 894.2634 	 1.085 	 95.076
0.4919582 	 11.7004243 	 908.5788 	 1.086 	 95.064
0.4943010 	 11.8851613 	 920.5257 	 1.086 	 95.036
0.4966173 	 12.0691229 	 930.9371 	 1.085 	 95.064
0.4989040 	 12.2555194 	 943.6713 	 1.086 	 95.038
0.5011646 	 12.4424119 	 955.8719 	 1.086 	 95.014
0.5033971 	 12.6336890 	 967.0100 	 1.086 	 95.053
0.5056026 	 12.8266426 	 981.7919 	 1.085 	 95.041
0.5077821 	 13.0182866 	 997.4159 	 1.086 	 95.051
0.5099368 	 13.2101971 	 1010.1148 	 1.085 	 95.029
0.5120675 	 13.4042724 	 1008.2653 	 1.086 	 95.030
0.5141709 	 13.5977675 	 1015.7771 	 1.085 	 95.009
0.5162539 	 13.7998409 	 1017.9515 	 1.085 	 95.035
0.5183122 	 13.9946984 	 1037.9688 	 1.085 	 95.003
0.5203456 	 14.1982631 	 1043.1898 	 1.085 	 95.013
0.5223557 	 14.4002585 	 1050.9988 	 1.085 	 95.006
0.5243449 	 14.6059636 	 1055.4669 	 1.085 	 95.021
0.5263117 	 14.8036118 	 1067.4809 	 1.086 	 94.958
0.5282560 	 15.0126854 	 1078.8305 	 1.086 	 94.986
0.5301787 	 15.2221113 	 1091.4064 	 1.086 	 94.957
0.5320818 	 15.4301339 	 1100.0056 	 1.086 	 94.955
0.5339629 	 15.6382527 	 1116.6794 	 1.086 	 94.948
0.5358247 	 15.8523270 	 1127.6363 	 1.085 	 94.978
0.5376653 	 16.0698017 	 1145.7367 	 1.086 	 94.961
0.5394868 	 16.2830457 	 1163.3345 	 1.087 	 94.959
0.5412872 	 16.5007363 	 1180.1300 	 1.086 	 94.952
0.5430691 	 16.7171734 	 1191.4403 	 1.085 	 94.949
0.5448320 	 16.9364656 	 1212.1151 	 1.085 	 94.947
0.5465770 	 17.1559340 	 1235.7472 	 1.085 	 94.915
0.5483029 	 17.3760659 	 1259.6337 	 1.085 	 94.905
0.5500082 	 17.6083718 	 1286.4667 	 1.085 	 94.924
0.5516976 	 17.8338458 	 1316.8757 	 1.085 	 94.943
0.5533709 	 18.0611188 	 1366.6318 	 1.085 	 94.908
0.5550260 	 18.2845665 	 1414.9679 	 1.084 	 94.918
0.5566667 	 18.5124850 	 1481.1529 	 1.085 	 94.900
0.5582892 	 18.7467651 	 1563.8657 	 1.085 	 94.894
0.5598931 	 18.9865037 	 1660.9810 	 1.085 	 94.914
0.5614823 	 19.2173188 	 1817.4686 	 1.084 	 94.897
0.5630546 	 19.4563558 	 2009.0538 	 1.084 	 94.884
0.5646115 	 19.7040970 	 2257.7811 	 1.084 	 94.885
0.5661523 	 19.9435924 	 2637.6618 	 1.084 	 94.876
0.5676774 	 20.1818942 	 3172.1311 	 1.082 	 94.847
0.5691871 	 20.4295811 	 4015.8316 	 1.081 	 94.856
0.5706815 	 20.6861719 	 5202.9930 	 1.081 	 94.868
0.5721618 	 20.9411543 	 7040.1012 	 1.079 	 94.858
0.5736249 	 21.2129784 	 9369.0162 	 1.078 	 94.893
0.5750725 	 21.4724546 	 12419.1514 	 1.077 	 94.857
0.5765050 	 21.7430177 	 17020.8996 	 1.074 	 94.845
0.5779230 	 22.0177494 	 22392.9070 	 1.072 	 94.851
0.5793249 	 22.3054749 	 29386.9596 	 1.069 	 94.885
0.5807118 	 22.5858813 	 38370.6962 	 1.066 	 94.909
0.5820845 	 22.8812135 	 47988.3433 	 1.062 	 94.914
0.5834413 	 23.1783913 	 58094.8216 	 1.057 	 94.921
0.5847820 	 23.4810823 	 70367.6315 	 1.052 	 94.931
0.5861095 	 23.7992263 	 81882.3365 	 1.046 	 94.944
0.5874212 	 24.1179521 	 94653.1371 	 1.039 	 94.903
0.5887164 	 24.4448665 	 106555.4563 	 1.033 	 94.917
0.5899970 	 24.7810587 	 118532.2831 	 1.025 	 94.947
0.5912621 	 25.1406998 	 129155.0793 	 1.019 	 94.933
0.5925098 	 25.5059105 	 140240.7917 	 1.012 	 94.916
0.5937417 	 25.8746360 	 152936.2770 	 1.005 	 94.904
0.5949582 	 26.2669900 	 166577.4537 	 0.999 	 94.882
0.5961585 	 26.6684162 	 180449.4520 	 0.995 	 94.888
0.5973424 	 27.0854451 	 195849.2508 	 0.991 	 94.835
0.5985085 	 27.5112133 	 210047.5284 	 0.987 	 94.801
0.5996569 	 27.9617138 	 225167.0895 	 0.985 	 94.793
0.6007889 	 28.4316885 	 238806.9625 	 0.984 	 94.731
0.6019041 	 28.9198396 	 251366.3696 	 0.984 	 94.713
0.6030003 	 29.4281768 	 263936.8439 	 0.984 	 94.681
0.6040793 	 29.9517712 	 272993.5612 	 0.986 	 94.637
0.6051401 	 30.4879878 	 281675.1768 	 0.989 	 94.606
0.6061836 	 31.0378882 	 287941.5909 	 0.992 	 94.566
0.6072097 	 31.6145382 	 293939.1262 	 0.996 	 94.541
0.6082179 	 32.1935592 	 299311.7830 	 1.000 	 94.500
0.6092090 	 32.7958440 	 302326.9873 	 1.005 	 94.470
0.6101836 	 33.4243292 	 304629.2896 	 1.012 	 94.461
0.6111405 	 34.0411718 	 307344.8710 	 1.017 	 94.410
0.6120805 	 34.6822821 	 310418.5758 	 1.023 	 94.390
0.6130042 	 35.3492729 	 313950.2916 	 1.031 	 94.361
0.6139115 	 36.0069247 	 318402.7439 	 1.038 	 94.332
0.6148029 	 36.7067173 	 323833.7082 	 1.047 	 94.312
0.6156781 	 37.3947646 	 331821.4174 	 1.056 	 94.292
0.6165375 	 38.0988026 	 342213.3490 	 1.066 	 94.255
0.6173829 	 38.8128706 	 355864.6618 	 1.076 	 94.263
0.6182134 	 39.5430914 	 372737.7211 	 1.088 	 94.239
0.6190294 	 40.2672384 	 392114.0481 	 1.098 	 94.181
0.6198308 	 41.0035092 	 417568.2592 	 1.109 	 94.136
0.6206188 	 41.7593900 	 447459.6911 	 1.121 	 94.095
0.6213934 	 42.5064668 	 483965.5318 	 1.133 	 94.048
0.6221546 	 43.2680073 	 521861.9755 	 1.146 	 93.983
0.6229032 	 44.0682426 	 564412.7932 	 1.157 	 93.969
0.6236389 	 44.8429647 	 609755.3122 	 1.169 	 93.888
0.6243626 	 45.6494322 	 657982.1964 	 1.181 	 93.851
0.6250741 	 46.4564382 	 703405.8655 	 1.190 	 93.776
0.6257733 	 47.2995913 	 748388.4911 	 1.200 	 93.697
0.6264606 	 48.1634857 	 792087.5413 	 1.209 	 93.608
0.6271358 	 49.0689745 	 830127.2750 	 1.218 	 93.595
0.6277995 	 49.9942452 	 863299.7557 	 1.225 	 93.536
0.6284510 	 50.9347527 	 891064.2526 	 1.231 	 93.454
0.6290909 	 51.9277279 	 914908.9759 	 1.237 	 93.405
0.6297189 	 52.9407689 	 934598.3403 	 1.241 	 93.352
