N=100 	 R=1000000 	 s=1 	 Save [density, Z, rho_t, like/unlike, events per sweep]
0.0001348 	 1.0005140 	 1.1026 	 1.006 	 10.125
0.0132566 	 1.1626567 	 12.2370 	 0.951 	 46.802
0.0260772 	 1.1528412 	 23.0040 	 1.004 	 78.935
0.0384956 	 1.1918203 	 33.4346 	 1.013 	 88.233
0.0505002 	 1.2394690 	 43.8516 	 1.016 	 91.999
0.0621495 	 1.2919906 	 54.5000 	 1.018 	 93.788
0.0734530 	 1.3480872 	 64.7710 	 1.019 	 94.764
0.0844179 	 1.4075083 	 75.2632 	 1.020 	 95.235
0.0950678 	 1.4695435 	 85.8502 	 1.021 	 95.498
0.1054037 	 1.5336271 	 96.5052 	 1.022 	 95.665
0.1154440 	 1.5999002 	 106.2565 	 1.024 	 95.734
0.1252042 	 1.6681729 	 116.7296 	 1.025 	 95.776
0.1346910 	 1.7384702 	 127.4048 	 1.026 	 95.826
0.1439329 	 1.8100798 	 136.5234 	 1.027 	 95.854
0.1529246 	 1.8840822 	 146.5046 	 1.028 	 95.870
0.1616792 	 1.9596375 	 156.0854 	 1.030 	 95.830
0.1702136 	 2.0367373 	 166.3142 	 1.031 	 95.809
0.1785266 	 2.1158554 	 176.7849 	 1.032 	 95.790
0.1866336 	 2.1959522 	 186.7621 	 1.033 	 95.774
0.1945358 	 2.2780869 	 197.5244 	 1.035 	 95.757
0.2022465 	 2.3617304 	 209.1278 	 1.036 	 95.726
0.2097705 	 2.4472167 	 219.9196 	 1.038 	 95.725
0.2171164 	 2.5339903 	 229.3728 	 1.038 	 95.700
0.2242967 	 2.6227094 	 241.7068 	 1.039 	 95.703
0.2313064 	 2.7124787 	 250.5013 	 1.041 	 95.668
0.2381525 	 2.8038138 	 260.1414 	 1.042 	 95.653
0.2448417 	 2.8970247 	 270.1660 	 1.043 	 95.649
0.2513870 	 2.9918399 	 279.7164 	 1.044 	 95.636
0.2577885 	 3.0879162 	 290.5116 	 1.045 	 95.624
0.2640561 	 3.1863559 	 300.1950 	 1.047 	 95.614
0.2701888 	 3.2854518 	 309.6912 	 1.048 	 95.601
0.2761913 	 3.3862018 	 317.3063 	 1.049 	 95.567
0.2820664 	 3.4883315 	 328.9482 	 1.050 	 95.540
0.2878215 	 3.5920263 	 337.7648 	 1.051 	 95.552
0.2934581 	 3.6974722 	 346.7964 	 1.052 	 95.513
0.2989794 	 3.8043610 	 357.0366 	 1.053 	 95.506
0.3043905 	 3.9132668 	 371.2661 	 1.053 	 95.512
0.3096993 	 4.0222116 	 382.0586 	 1.055 	 95.460
0.3149047 	 4.1342737 	 392.6111 	 1.056 	 95.514
0.3200079 	 4.2474790 	 400.2295 	 1.057 	 95.463
0.3250161 	 4.3623879 	 412.8472 	 1.058 	 95.460
0.3299284 	 4.4774483 	 422.7863 	 1.058 	 95.432
0.3347483 	 4.5953033 	 431.6374 	 1.060 	 95.449
0.3394769 	 4.7141015 	 442.6335 	 1.060 	 95.441
0.3441206 	 4.8334586 	 449.5493 	 1.062 	 95.406
0.3486857 	 4.9551112 	 462.0657 	 1.063 	 95.401
0.3531679 	 5.0782318 	 473.9920 	 1.063 	 95.362
0.3575701 	 5.2037265 	 485.2682 	 1.064 	 95.366
0.3618947 	 5.3300364 	 497.3322 	 1.065 	 95.361
0.3661432 	 5.4568491 	 508.5855 	 1.066 	 95.372
0.3703171 	 5.5854037 	 520.5605 	 1.066 	 95.359
0.3744247 	 5.7158775 	 526.0407 	 1.067 	 95.334
0.3784608 	 5.8486424 	 536.0184 	 1.068 	 95.340
0.3824288 	 5.9829126 	 544.9336 	 1.069 	 95.355
0.3863303 	 6.1159604 	 560.3503 	 1.069 	 95.300
0.3901702 	 6.2516757 	 574.6751 	 1.070 	 95.312
0.3939502 	 6.3893484 	 592.1427 	 1.071 	 95.288
0.3976666 	 6.5291967 	 601.2386 	 1.072 	 95.298
0.4013251 	 6.6676902 	 612.9776 	 1.073 	 95.251
0.4049283 	 6.8089647 	 627.0725 	 1.073 	 95.260
0.4084743 	 6.9534660 	 636.5064 	 1.073 	 95.282
0.4119639 	 7.0963588 	 643.9539 	 1.074 	 95.235
0.4154027 	 7.2441372 	 659.2044 	 1.075 	 95.233
0.4187876 	 7.3889550 	 669.1148 	 1.076 	 95.210
0.4221260 	 7.5396267 	 676.1558 	 1.076 	 95.218
0.4254104 	 7.6911667 	 688.6296 	 1.077 	 95.208
0.4286471 	 7.8417940 	 702.9066 	 1.077 	 95.224
0.4318368 	 7.9938421 	 712.8032 	 1.078 	 95.176
0.4349785 	 8.1467190 	 724.6606 	 1.078 	 95.184
0.4380768 	 8.3053332 	 735.9905 	 1.079 	 95.205
0.4411278 	 8.4597587 	 748.1433 	 1.079 	 95.176
0.4441392 	 8.6178852 	 751.7477 	 1.080 	 95.181
0.4471080 	 8.7790034 	 764.4023 	 1.080 	 95.188
0.4500362 	 8.9412870 	 777.5530 	 1.080 	 95.158
0.4529211 	 9.1011014 	 781.1984 	 1.081 	 95.149
0.4557703 	 9.2648713 	 797.2148 	 1.081 	 95.167
0.4585787 	 9.4292655 	 806.8437 	 1.082 	 95.122
0.4613505 	 9.5958855 	 816.4518 	 1.082 	 95.123
0.4640845 	 9.7631261 	 822.5112 	 1.082 	 95.131
0.4667814 	 9.9350850 	 826.0329 	 1.083 	 95.153
0.4694455 	 10.1047066 	 838.6268 	 1.083 	 95.106
0.4720719 	 10.2767477 	 847.8463 	 1.084 	 95.130
0.4746657 	 10.4483069 	 856.0714 	 1.084 	 95.122
0.4772249 	 10.6246180 	 862.7264 	 1.084 	 95.096
0.4797528 	 10.7970523 	 873.8072 	 1.084 	 95.085
0.4822487 	 10.9740448 	 884.4550 	 1.084 	 95.074
0.4847118 	 11.1527432 	 896.8709 	 1.084 	 95.068
0.4871454 	 11.3352167 	 908.3137 	 1.085 	 95.088
0.4895498 	 11.5149991 	 918.7476 	 1.084 	 95.059
0.4919231 	 11.6964771 	 924.0050 	 1.085 	 95.081
0.4942681 	 11.8811590 	 935.3713 	 1.085 	 95.094
0.4965822 	 12.0662878 	 948.9147 	 1.085 	 95.060
0.4988709 	 12.2535180 	 955.4489 	 1.086 	 95.057
0.5011331 	 12.4391436 	 963.6833 	 1.086 	 95.013
0.5033673 	 12.6303363 	 965.5066 	 1.087 	 95.060
0.5055751 	 12.8215439 	 983.2925 	 1.087 	 95.032
0.5077554 	 13.0158399 	 994.9135 	 1.086 	 95.034
0.5099097 	 13.2068156 	 999.7355 	 1.087 	 95.026
0.5120397 	 13.4017688 	 1013.2192 	 1.088 	 95.042
0.5141450 	 13.5977861 	 1015.3707 	 1.087 	 95.017
0.5162258 	 13.7991726 	 1032.6367 	 1.088 	 95.036
0.5182835 	 13.9998166 	 1037.1090 	 1.088 	 95.026
0.5203162 	 14.1921086 	 1047.5620 	 1.088 	 95.011
0.5223263 	 14.4021543 	 1058.0324 	 1.089 	 95.019
0.5243149 	 14.6007368 	 1065.0134 	 1.087 	 94.982
0.5262814 	 14.8085622 	 1078.0826 	 1.088 	 95.006
0.5282255 	 15.0096577 	 1096.4813 	 1.088 	 94.978
0.5301488 	 15.2165385 	 1114.7122 	 1.088 	 94.937
0.5320499 	 15.4317236 	 1133.4287 	 1.088 	 94.986
0.5339298 	 15.6400737 	 1134.6827 	 1.088 	 94.964
0.5357915 	 15.8531718 	 1149.3673 	 1.089 	 94.982
0.5376340 	 16.0638873 	 1157.6975 	 1.088 	 94.942
0.5394535 	 16.2771530 	 1164.5705 	 1.088 	 94.944
0.5412543 	 16.4948311 	 1177.8028 	 1.087 	 94.970
0.5430367 	 16.7173279 	 1200.5201 	 1.087 	 94.947
0.5447993 	 16.9352506 	 1224.7964 	 1.086 	 94.911
0.5465460 	 17.1590181 	 1245.5059 	 1.087 	 94.935
0.5482729 	 17.3764594 	 1269.7678 	 1.086 	 94.918
0.5499805 	 17.6051610 	 1294.7702 	 1.086 	 94.925
0.5516703 	 17.8265113 	 1329.4465 	 1.086 	 94.932
0.5533439 	 18.0568834 	 1372.7991 	 1.085 	 94.946
0.5549993 	 18.2805941 	 1420.7788 	 1.086 	 94.903
0.5566380 	 18.5155261 	 1484.8346 	 1.085 	 94.883
0.5582592 	 18.7417172 	 1576.4530 	 1.085 	 94.899
0.5598655 	 18.9833346 	 1683.0582 	 1.085 	 94.899
0.5614545 	 19.2172657 	 1823.0150 	 1.085 	 94.872
0.5630262 	 19.4565532 	 1999.4322 	 1.086 	 94.882
0.5645829 	 19.7001757 	 2202.3417 	 1.086 	 94.895
0.5661243 	 19.9422873 	 2457.8794 	 1.086 	 94.890
0.5676496 	 20.1924030 	 2806.2398 	 1.086 	 94.875
0.5691584 	 20.4528933 	 3208.0078 	 1.086 	 94.860
0.5706524 	 20.7089271 	 3755.5905 	 1.087 	 94.871
0.5721287 	 20.9792082 	 4429.2318 	 1.087 	 94.840
0.5735890 	 21.2528273 	 5233.7289 	 1.088 	 94.833
0.5750338 	 21.5412650 	 6103.5441 	 1.087 	 94.850
0.5764621 	 21.8287911 	 7193.9360 	 1.087 	 94.839
0.5778736 	 22.1276513 	 8489.4617 	 1.088 	 94.850
0.5792678 	 22.4350113 	 10057.1853 	 1.089 	 94.842
0.5806455 	 22.7484105 	 11573.5568 	 1.090 	 94.832
0.5820052 	 23.0756519 	 13593.4733 	 1.091 	 94.840
0.5833489 	 23.4116662 	 15641.2198 	 1.092 	 94.842
0.5846760 	 23.7644836 	 17629.1842 	 1.094 	 94.885
0.5859853 	 24.1082281 	 19522.8207 	 1.096 	 94.825
0.5872765 	 24.4744774 	 21759.1088 	 1.097 	 94.831
0.5885515 	 24.8466077 	 23637.2182 	 1.098 	 94.837
0.5898076 	 25.2259198 	 25425.1022 	 1.099 	 94.863
0.5910478 	 25.6182142 	 27308.4194 	 1.099 	 94.849
0.5922706 	 26.0216296 	 28868.7794 	 1.101 	 94.830
0.5934760 	 26.4404227 	 30266.4076 	 1.102 	 94.855
0.5946638 	 26.8530277 	 31700.8057 	 1.103 	 94.882
0.5958345 	 27.2898577 	 33212.6769 	 1.104 	 94.866
0.5969896 	 27.7220471 	 35063.8610 	 1.105 	 94.870
0.5981262 	 28.1697935 	 37223.6892 	 1.106 	 94.850
0.5992467 	 28.6255744 	 39535.5221 	 1.106 	 94.870
0.6003515 	 29.0986242 	 42738.0198 	 1.108 	 94.861
0.6014391 	 29.5736310 	 45761.3633 	 1.109 	 94.843
0.6025109 	 30.0726912 	 49735.2629 	 1.111 	 94.874
0.6035661 	 30.5696390 	 55188.4433 	 1.112 	 94.864
0.6046047 	 31.0764649 	 60910.3301 	 1.114 	 94.870
0.6056279 	 31.5979797 	 65766.5467 	 1.116 	 94.874
0.6066358 	 32.1365721 	 71262.7444 	 1.119 	 94.858
0.6076272 	 32.6882477 	 76741.2038 	 1.122 	 94.874
0.6086035 	 33.2391035 	 81925.8684 	 1.126 	 94.860
0.6095640 	 33.7986038 	 87756.5697 	 1.128 	 94.861
0.6105096 	 34.3782239 	 93446.1502 	 1.132 	 94.857
0.6114402 	 34.9694646 	 98847.5862 	 1.135 	 94.862
0.6123567 	 35.5489660 	 106111.5745 	 1.139 	 94.840
0.6132593 	 36.1457545 	 115130.1939 	 1.143 	 94.811
0.6141479 	 36.7519509 	 125860.5526 	 1.147 	 94.783
0.6150221 	 37.3820212 	 139980.1632 	 1.152 	 94.781
0.6158830 	 38.0149890 	 157154.0756 	 1.156 	 94.761
0.6167309 	 38.6492465 	 182050.5117 	 1.160 	 94.746
0.6175647 	 39.2896506 	 211602.9248 	 1.164 	 94.721
0.6183850 	 39.9416612 	 245671.4659 	 1.168 	 94.706
0.6191932 	 40.6181825 	 284635.7961 	 1.172 	 94.692
0.6199880 	 41.2992027 	 330321.0993 	 1.175 	 94.679
0.6207704 	 42.0005503 	 377089.2238 	 1.178 	 94.641
0.6215413 	 42.7410352 	 425503.1688 	 1.181 	 94.664
0.6222990 	 43.4608712 	 479650.3213 	 1.186 	 94.635
0.6230453 	 44.2364905 	 528033.0635 	 1.188 	 94.633
0.6237781 	 45.0003477 	 580373.1946 	 1.191 	 94.626
0.6244991 	 45.8164521 	 629745.8610 	 1.194 	 94.641
0.6252080 	 46.6307042 	 674411.7101 	 1.196 	 94.634
0.6259050 	 47.4754990 	 719805.0115 	 1.199 	 94.642
0.6265899 	 48.3253756 	 760777.1451 	 1.201 	 94.606
0.6272630 	 49.2255224 	 794420.5130 	 1.204 	 94.634
0.6279241 	 50.1296951 	 822406.7404 	 1.207 	 94.616
0.6285739 	 51.0681233 	 849155.5887 	 1.209 	 94.601
0.6292118 	 52.0269403 	 871306.6261 	 1.211 	 94.579
0.6298388 	 52.9940522 	 892683.1593 	 1.215 	 94.553
