N=100 	 R=1000000 	 s=1 	 Save [density, Z, rho_t, like/unlike, events per sweep]
0.0001347 	 1.0005136 	 1.1027 	 1.002 	 10.125
0.0132536 	 1.1626430 	 12.1863 	 0.950 	 46.796
0.0260811 	 1.1527773 	 22.9320 	 1.004 	 78.929
0.0385052 	 1.1918387 	 33.3097 	 1.013 	 88.246
0.0505163 	 1.2395841 	 44.1275 	 1.016 	 92.021
0.0621669 	 1.2921092 	 54.3223 	 1.017 	 93.778
0.0734655 	 1.3481981 	 64.7187 	 1.019 	 94.758
0.0844179 	 1.4074873 	 75.4149 	 1.020 	 95.224
0.0950614 	 1.4694364 	 86.2216 	 1.021 	 95.520
0.1053985 	 1.5336608 	 96.1528 	 1.022 	 95.660
0.1154420 	 1.5999971 	 105.9280 	 1.024 	 95.767
0.1252043 	 1.6682065 	 116.5438 	 1.026 	 95.779
0.1346982 	 1.7385369 	 126.8014 	 1.026 	 95.809
0.1439409 	 1.8098733 	 136.5944 	 1.027 	 95.863
0.1529435 	 1.8840838 	 147.0704 	 1.028 	 95.857
0.1617022 	 1.9596384 	 156.6232 	 1.030 	 95.808
0.1702355 	 2.0370156 	 167.2446 	 1.031 	 95.808
0.1785451 	 2.1156296 	 176.9586 	 1.033 	 95.763
0.1866490 	 2.1965760 	 187.2465 	 1.033 	 95.789
0.1945485 	 2.2785431 	 198.8425 	 1.035 	 95.749
0.2022591 	 2.3621237 	 210.3564 	 1.036 	 95.720
0.2097843 	 2.4472513 	 222.3290 	 1.037 	 95.716
0.2171312 	 2.5342113 	 233.2362 	 1.039 	 95.693
0.2243034 	 2.6226369 	 243.8828 	 1.039 	 95.688
0.2313132 	 2.7128625 	 255.0099 	 1.041 	 95.677
0.2381613 	 2.8044310 	 268.3977 	 1.042 	 95.668
0.2448595 	 2.8973476 	 278.7021 	 1.044 	 95.652
0.2514051 	 2.9918232 	 289.8245 	 1.044 	 95.644
0.2578047 	 3.0883791 	 300.0250 	 1.046 	 95.590
0.2640733 	 3.1863694 	 307.2340 	 1.046 	 95.593
0.2702004 	 3.2855770 	 317.6114 	 1.048 	 95.568
0.2762031 	 3.3862114 	 328.4916 	 1.049 	 95.571
0.2820773 	 3.4881413 	 338.9219 	 1.050 	 95.540
0.2878304 	 3.5923109 	 351.1774 	 1.051 	 95.549
0.2934674 	 3.6984672 	 361.0855 	 1.052 	 95.537
0.2989916 	 3.8043439 	 370.8121 	 1.053 	 95.510
0.3044015 	 3.9136793 	 379.1612 	 1.054 	 95.505
0.3097094 	 4.0237453 	 393.8234 	 1.055 	 95.498
0.3149087 	 4.1335035 	 404.2948 	 1.056 	 95.447
0.3200115 	 4.2471814 	 416.3902 	 1.057 	 95.472
0.3250111 	 4.3619474 	 428.6553 	 1.058 	 95.454
0.3299258 	 4.4771705 	 439.2062 	 1.059 	 95.453
0.3347463 	 4.5946829 	 448.6756 	 1.059 	 95.431
0.3394776 	 4.7136202 	 459.3845 	 1.060 	 95.436
0.3441225 	 4.8349024 	 467.1213 	 1.062 	 95.437
0.3486876 	 4.9547559 	 479.7438 	 1.062 	 95.405
0.3531671 	 5.0789448 	 493.1361 	 1.063 	 95.392
0.3575681 	 5.2035519 	 505.5639 	 1.064 	 95.383
0.3618946 	 5.3288205 	 517.1077 	 1.065 	 95.377
0.3661452 	 5.4573303 	 528.5340 	 1.066 	 95.361
0.3703225 	 5.5863174 	 536.0912 	 1.066 	 95.358
0.3744283 	 5.7151975 	 549.7485 	 1.067 	 95.324
0.3784653 	 5.8477983 	 556.3531 	 1.068 	 95.327
0.3824362 	 5.9822134 	 565.7071 	 1.069 	 95.343
0.3863427 	 6.1167011 	 573.9738 	 1.070 	 95.317
0.3901864 	 6.2528035 	 582.8183 	 1.070 	 95.311
0.3939662 	 6.3901261 	 594.4171 	 1.072 	 95.303
0.3976849 	 6.5299099 	 607.0307 	 1.072 	 95.283
0.4013445 	 6.6700238 	 614.0097 	 1.072 	 95.290
0.4049476 	 6.8112897 	 626.4394 	 1.073 	 95.246
0.4084934 	 6.9529576 	 641.3375 	 1.073 	 95.237
0.4119855 	 7.0983404 	 649.1194 	 1.074 	 95.255
0.4154220 	 7.2441926 	 657.4255 	 1.075 	 95.230
0.4188097 	 7.3907564 	 669.9670 	 1.075 	 95.233
0.4221457 	 7.5409778 	 678.7844 	 1.076 	 95.219
0.4254331 	 7.6907153 	 684.3744 	 1.077 	 95.223
0.4286705 	 7.8434941 	 695.1721 	 1.078 	 95.214
0.4318620 	 7.9946598 	 707.5058 	 1.078 	 95.203
0.4350062 	 8.1502049 	 716.1341 	 1.078 	 95.204
0.4381072 	 8.3066151 	 729.4373 	 1.078 	 95.190
0.4411603 	 8.4612861 	 739.5809 	 1.079 	 95.176
0.4441718 	 8.6206573 	 747.9065 	 1.080 	 95.175
0.4471419 	 8.7805586 	 760.5308 	 1.080 	 95.174
0.4500709 	 8.9410174 	 770.0451 	 1.081 	 95.158
0.4529580 	 9.1043603 	 786.5152 	 1.082 	 95.156
0.4558084 	 9.2668508 	 798.2094 	 1.082 	 95.138
0.4586189 	 9.4319485 	 802.7142 	 1.082 	 95.156
0.4613896 	 9.5980914 	 817.3292 	 1.082 	 95.120
0.4641235 	 9.7655883 	 829.7218 	 1.082 	 95.118
0.4668210 	 9.9350591 	 840.1997 	 1.083 	 95.102
0.4694837 	 10.1060377 	 849.7353 	 1.082 	 95.106
0.4721092 	 10.2769613 	 862.2484 	 1.083 	 95.102
0.4747008 	 10.4493715 	 878.7946 	 1.084 	 95.111
0.4772606 	 10.6233833 	 885.0322 	 1.084 	 95.082
0.4797871 	 10.7996692 	 894.6367 	 1.085 	 95.087
0.4822810 	 10.9779211 	 909.2077 	 1.085 	 95.076
0.4847453 	 11.1591685 	 910.6985 	 1.086 	 95.103
0.4871781 	 11.3372512 	 915.4697 	 1.085 	 95.092
0.4895803 	 11.5203004 	 927.1996 	 1.085 	 95.092
0.4919527 	 11.7015417 	 934.4556 	 1.086 	 95.096
0.4942984 	 11.8860477 	 948.2709 	 1.086 	 95.065
0.4966127 	 12.0692160 	 960.8378 	 1.086 	 95.037
0.4989009 	 12.2574539 	 970.2961 	 1.086 	 95.067
0.5011605 	 12.4427703 	 982.9977 	 1.086 	 95.051
0.5033939 	 12.6341544 	 1002.4728 	 1.086 	 95.086
0.5056016 	 12.8251181 	 1021.6155 	 1.086 	 95.052
0.5077813 	 13.0169280 	 1033.6167 	 1.088 	 95.024
0.5099367 	 13.2098704 	 1045.2239 	 1.087 	 95.043
0.5120690 	 13.4036310 	 1064.3281 	 1.087 	 94.999
0.5141727 	 13.6006338 	 1074.7884 	 1.087 	 95.020
0.5162524 	 13.7980863 	 1087.4593 	 1.087 	 95.033
0.5183098 	 13.9975085 	 1086.7394 	 1.087 	 94.977
0.5203443 	 14.1961924 	 1096.9241 	 1.087 	 94.986
0.5223553 	 14.4005396 	 1110.8617 	 1.086 	 94.979
0.5243443 	 14.6048457 	 1123.7312 	 1.087 	 95.020
0.5263112 	 14.8085772 	 1125.2673 	 1.086 	 94.984
0.5282552 	 15.0131381 	 1129.5906 	 1.087 	 94.989
0.5301775 	 15.2237440 	 1140.6459 	 1.088 	 94.979
0.5320794 	 15.4287889 	 1150.4806 	 1.087 	 94.972
0.5339608 	 15.6413454 	 1165.6237 	 1.088 	 94.963
0.5358241 	 15.8504405 	 1180.3865 	 1.088 	 94.961
0.5376647 	 16.0652215 	 1195.2956 	 1.088 	 94.954
0.5394864 	 16.2832103 	 1208.8896 	 1.088 	 94.964
0.5412872 	 16.4983356 	 1227.4308 	 1.087 	 94.972
0.5430682 	 16.7112766 	 1255.0260 	 1.088 	 94.936
0.5448314 	 16.9298363 	 1272.4828 	 1.088 	 94.945
0.5465766 	 17.1544568 	 1305.0013 	 1.087 	 94.950
0.5483018 	 17.3722759 	 1333.6651 	 1.087 	 94.895
0.5500098 	 17.6042538 	 1363.4668 	 1.087 	 94.909
0.5517001 	 17.8314431 	 1390.7472 	 1.086 	 94.943
0.5533741 	 18.0540867 	 1432.1808 	 1.086 	 94.929
0.5550296 	 18.2781295 	 1480.5733 	 1.086 	 94.899
0.5566682 	 18.5118050 	 1556.6609 	 1.085 	 94.914
0.5582907 	 18.7512739 	 1631.3390 	 1.085 	 94.924
0.5598961 	 18.9766446 	 1707.7430 	 1.084 	 94.912
0.5614856 	 19.2123168 	 1827.1160 	 1.082 	 94.893
0.5630598 	 19.4575287 	 1989.6241 	 1.082 	 94.901
0.5646172 	 19.6966552 	 2198.3651 	 1.080 	 94.871
0.5661575 	 19.9386547 	 2527.2441 	 1.079 	 94.872
0.5676830 	 20.1857191 	 2902.1450 	 1.077 	 94.895
0.5691945 	 20.4284989 	 3523.8046 	 1.075 	 94.898
0.5706900 	 20.6778756 	 4438.4245 	 1.072 	 94.878
0.5721702 	 20.9208964 	 5808.7441 	 1.068 	 94.887
0.5736352 	 21.1680670 	 8105.8001 	 1.064 	 94.884
0.5750887 	 21.4090189 	 12072.5951 	 1.059 	 94.882
0.5765282 	 21.6299062 	 19501.6152 	 1.052 	 94.883
0.5779563 	 21.8373965 	 33019.5682 	 1.043 	 94.921
0.5793737 	 22.0388874 	 56445.4328 	 1.032 	 94.981
0.5807824 	 22.2122091 	 95911.4270 	 1.018 	 95.008
0.5821821 	 22.3940973 	 155946.9486 	 1.004 	 95.062
0.5835744 	 22.5755799 	 236757.7595 	 0.988 	 95.113
0.5849570 	 22.7843239 	 336037.4304 	 0.973 	 95.184
0.5863290 	 23.0051084 	 444885.8954 	 0.960 	 95.222
0.5876892 	 23.2660826 	 552997.5786 	 0.948 	 95.271
0.5890355 	 23.5751858 	 649318.0047 	 0.940 	 95.314
0.5903654 	 23.9192882 	 728869.9303 	 0.934 	 95.321
0.5916778 	 24.2989032 	 795111.0936 	 0.929 	 95.351
0.5929702 	 24.7013251 	 841389.7015 	 0.927 	 95.306
0.5942430 	 25.1328505 	 878046.0081 	 0.926 	 95.365
0.5954964 	 25.5776991 	 907445.0168 	 0.925 	 95.327
0.5967296 	 26.0456746 	 928554.9986 	 0.925 	 95.315
0.5979411 	 26.5138336 	 945089.6369 	 0.926 	 95.289
0.5991321 	 27.0155356 	 957810.0656 	 0.927 	 95.262
0.6003030 	 27.5197752 	 968312.2972 	 0.929 	 95.271
0.6014537 	 28.0464068 	 975447.5847 	 0.931 	 95.228
0.6025846 	 28.5778196 	 981793.1972 	 0.933 	 95.239
0.6036944 	 29.1266838 	 986430.5477 	 0.934 	 95.223
0.6047853 	 29.6905633 	 989126.8433 	 0.936 	 95.182
0.6058575 	 30.2607472 	 991506.5538 	 0.938 	 95.149
0.6069099 	 30.8424641 	 993004.4416 	 0.940 	 95.144
0.6079446 	 31.4360425 	 994293.2714 	 0.943 	 95.100
0.6089590 	 32.0600678 	 995503.2939 	 0.945 	 95.108
0.6099557 	 32.6885122 	 995814.4647 	 0.948 	 95.059
0.6109343 	 33.3283243 	 996474.7979 	 0.950 	 95.072
0.6118950 	 33.9948265 	 997226.9830 	 0.953 	 95.045
0.6128381 	 34.6479441 	 997444.5899 	 0.955 	 95.023
0.6137641 	 35.3278037 	 997664.1767 	 0.957 	 94.976
0.6146728 	 36.0357844 	 997987.7339 	 0.960 	 94.969
0.6155645 	 36.7440762 	 998469.0567 	 0.962 	 94.948
0.6164394 	 37.4727325 	 998473.1390 	 0.965 	 94.938
0.6172985 	 38.2089465 	 998782.7333 	 0.968 	 94.870
0.6181413 	 38.9592960 	 998906.5887 	 0.969 	 94.841
0.6189686 	 39.7417111 	 999148.3630 	 0.973 	 94.859
0.6197800 	 40.5396923 	 999194.3248 	 0.975 	 94.839
0.6205761 	 41.3426820 	 999148.3630 	 0.978 	 94.792
0.6213573 	 42.1577259 	 999222.3026 	 0.980 	 94.753
0.6221237 	 43.0170062 	 999474.1383 	 0.983 	 94.764
0.6228763 	 43.8700921 	 999474.1383 	 0.986 	 94.725
0.6236150 	 44.7469739 	 999562.0959 	 0.988 	 94.708
0.6243392 	 45.6322691 	 999734.0354 	 0.990 	 94.680
0.6250500 	 46.5630257 	 999752.0308 	 0.992 	 94.694
0.6257472 	 47.4929215 	 999860.0098 	 0.995 	 94.677
0.6264309 	 48.4458408 	 999902.0048 	 0.997 	 94.646
0.6271014 	 49.4077079 	 999968.0005 	 1.000 	 94.606
0.6277600 	 50.4106656 	 999964.0006 	 1.002 	 94.602
0.6284052 	 51.4162466 	 999946.0015 	 1.005 	 94.564
0.6290387 	 52.4465250 	 999930.0024 	 1.006 	 94.546
0.6296604 	 53.5184738 	 999980.0002 	 1.009 	 94.530
