N=100 	 R=1000000 	 s=1 	 Save [density, Z, rho_t, like/unlike, events per sweep]
0.0001350 	 1.0005144 	 1.1026 	 1.009 	 10.125
0.0132509 	 1.1626295 	 12.2076 	 0.950 	 46.767
0.0260759 	 1.1527876 	 22.8289 	 1.004 	 78.948
0.0384855 	 1.1917461 	 33.4132 	 1.013 	 88.215
0.0505012 	 1.2394801 	 44.0481 	 1.016 	 92.011
0.0621535 	 1.2920808 	 54.6021 	 1.017 	 93.808
0.0734548 	 1.3480933 	 65.2766 	 1.019 	 94.764
0.0844237 	 1.4075659 	 75.7979 	 1.020 	 95.235
0.0950679 	 1.4695171 	 86.1700 	 1.021 	 95.509
0.1053985 	 1.5337006 	 96.4859 	 1.022 	 95.669
0.1154456 	 1.6000742 	 106.5263 	 1.023 	 95.717
0.1252107 	 1.6682690 	 116.5425 	 1.024 	 95.779
0.1347117 	 1.7387373 	 126.4499 	 1.026 	 95.797
0.1439531 	 1.8101632 	 137.0011 	 1.027 	 95.893
0.1529494 	 1.8840684 	 147.7639 	 1.029 	 95.824
0.1617121 	 1.9599327 	 157.9290 	 1.030 	 95.829
0.1702450 	 2.0373237 	 168.5905 	 1.031 	 95.833
0.1785628 	 2.1156750 	 177.9295 	 1.032 	 95.772
0.1866659 	 2.1965939 	 187.2564 	 1.034 	 95.761
0.1945745 	 2.2785724 	 197.6335 	 1.035 	 95.742
0.2022823 	 2.3622504 	 207.5846 	 1.036 	 95.742
0.2098038 	 2.4474389 	 219.7908 	 1.037 	 95.713
0.2171444 	 2.5344870 	 230.4013 	 1.039 	 95.700
0.2243198 	 2.6226004 	 239.9299 	 1.040 	 95.672
0.2313293 	 2.7129747 	 251.5065 	 1.041 	 95.665
0.2381764 	 2.8046333 	 262.7495 	 1.042 	 95.653
0.2448647 	 2.8975197 	 274.4709 	 1.043 	 95.638
0.2514119 	 2.9921791 	 284.0672 	 1.044 	 95.623
0.2578171 	 3.0881241 	 295.5772 	 1.045 	 95.594
0.2640801 	 3.1860008 	 308.3995 	 1.046 	 95.571
0.2702105 	 3.2850943 	 321.3078 	 1.047 	 95.561
0.2762104 	 3.3869089 	 330.5796 	 1.049 	 95.570
0.2820822 	 3.4880493 	 340.2114 	 1.050 	 95.532
0.2878389 	 3.5929252 	 348.7485 	 1.051 	 95.537
0.2934725 	 3.6985384 	 356.2329 	 1.051 	 95.533
0.2989972 	 3.8046320 	 365.7768 	 1.053 	 95.511
0.3044105 	 3.9135018 	 373.5857 	 1.053 	 95.518
0.3097184 	 4.0228858 	 386.4238 	 1.055 	 95.488
0.3149202 	 4.1340732 	 397.5944 	 1.056 	 95.455
0.3200263 	 4.2478453 	 409.9102 	 1.057 	 95.479
0.3250359 	 4.3625144 	 419.1364 	 1.058 	 95.459
0.3299506 	 4.4776373 	 431.1581 	 1.059 	 95.455
0.3347737 	 4.5951685 	 439.3421 	 1.059 	 95.429
0.3395044 	 4.7138361 	 446.3087 	 1.060 	 95.409
0.3441523 	 4.8354496 	 454.4025 	 1.061 	 95.432
0.3487158 	 4.9559111 	 465.2605 	 1.062 	 95.387
0.3531973 	 5.0789967 	 474.4400 	 1.063 	 95.369
0.3575986 	 5.2046096 	 485.2491 	 1.064 	 95.373
0.3619206 	 5.3300207 	 497.5711 	 1.065 	 95.363
0.3661683 	 5.4589362 	 509.3618 	 1.066 	 95.372
0.3703489 	 5.5873114 	 519.3117 	 1.066 	 95.360
0.3744572 	 5.7179271 	 525.5736 	 1.067 	 95.340
0.3784962 	 5.8490630 	 541.3897 	 1.068 	 95.310
0.3824677 	 5.9828730 	 548.0310 	 1.069 	 95.332
0.3863713 	 6.1174900 	 563.1840 	 1.070 	 95.309
0.3902141 	 6.2520134 	 574.2994 	 1.070 	 95.299
0.3939939 	 6.3913076 	 584.7805 	 1.071 	 95.299
0.3977124 	 6.5295562 	 594.4792 	 1.072 	 95.282
0.4013704 	 6.6702954 	 605.4294 	 1.072 	 95.279
0.4049724 	 6.8106450 	 616.7434 	 1.073 	 95.248
0.4085149 	 6.9546965 	 628.9802 	 1.073 	 95.250
0.4120065 	 7.0994550 	 642.3714 	 1.075 	 95.252
0.4154426 	 7.2477983 	 654.3554 	 1.075 	 95.283
0.4188281 	 7.3930783 	 666.2037 	 1.076 	 95.260
0.4221630 	 7.5402985 	 673.1316 	 1.077 	 95.253
0.4254492 	 7.6934081 	 678.2255 	 1.076 	 95.232
0.4286845 	 7.8442174 	 686.3173 	 1.077 	 95.215
0.4318748 	 7.9963317 	 700.2905 	 1.077 	 95.200
0.4350185 	 8.1500552 	 708.9541 	 1.078 	 95.205
0.4381204 	 8.3049702 	 725.5596 	 1.079 	 95.163
0.4411745 	 8.4616992 	 729.7720 	 1.080 	 95.180
0.4441856 	 8.6232506 	 739.5331 	 1.080 	 95.185
0.4471548 	 8.7820039 	 743.2159 	 1.080 	 95.189
0.4500832 	 8.9402996 	 751.7252 	 1.081 	 95.152
0.4529690 	 9.1031127 	 763.0206 	 1.082 	 95.148
0.4558172 	 9.2677639 	 768.5896 	 1.082 	 95.157
0.4586279 	 9.4339888 	 779.3954 	 1.082 	 95.147
0.4613976 	 9.5994996 	 787.5859 	 1.083 	 95.153
0.4641298 	 9.7658565 	 800.8099 	 1.082 	 95.141
0.4668282 	 9.9366582 	 813.5135 	 1.083 	 95.158
0.4694890 	 10.1061182 	 815.5160 	 1.084 	 95.108
0.4721150 	 10.2786166 	 830.2713 	 1.084 	 95.148
0.4747081 	 10.4495059 	 838.5671 	 1.084 	 95.114
0.4772699 	 10.6256111 	 851.6540 	 1.085 	 95.084
0.4797997 	 10.8015808 	 865.9433 	 1.085 	 95.087
0.4822954 	 10.9795607 	 874.6565 	 1.085 	 95.109
0.4847581 	 11.1565044 	 882.5692 	 1.085 	 95.077
0.4871917 	 11.3374465 	 893.8067 	 1.085 	 95.088
0.4895936 	 11.5162094 	 900.6086 	 1.085 	 95.061
0.4919681 	 11.7018464 	 905.3971 	 1.085 	 95.072
0.4943119 	 11.8820588 	 919.4545 	 1.086 	 95.046
0.4966269 	 12.0730121 	 942.4609 	 1.087 	 95.071
0.4989149 	 12.2579974 	 949.7260 	 1.086 	 95.044
0.5011754 	 12.4458327 	 960.7552 	 1.087 	 95.060
0.5034085 	 12.6355077 	 967.2186 	 1.087 	 95.056
0.5056149 	 12.8264231 	 983.4108 	 1.088 	 95.038
0.5077949 	 13.0166509 	 1002.0070 	 1.088 	 95.057
0.5099497 	 13.2111122 	 1012.6897 	 1.088 	 95.017
0.5120797 	 13.4063810 	 1017.5435 	 1.088 	 95.013
0.5141845 	 13.6033146 	 1023.9505 	 1.088 	 95.015
0.5162654 	 13.7986556 	 1038.6777 	 1.088 	 94.999
0.5183224 	 13.9967994 	 1051.2268 	 1.088 	 95.001
0.5203576 	 14.1994538 	 1059.3416 	 1.088 	 95.004
0.5223674 	 14.4045069 	 1074.0889 	 1.088 	 95.002
0.5243565 	 14.6108198 	 1080.2595 	 1.088 	 95.002
0.5263230 	 14.8121518 	 1097.2245 	 1.089 	 94.988
0.5282667 	 15.0126809 	 1112.0763 	 1.088 	 94.974
0.5301903 	 15.2235209 	 1121.8065 	 1.088 	 94.987
0.5320911 	 15.4300707 	 1132.2291 	 1.089 	 94.964
0.5339720 	 15.6437372 	 1136.6004 	 1.088 	 94.959
0.5358325 	 15.8614631 	 1142.3317 	 1.088 	 94.979
0.5376721 	 16.0775023 	 1161.6828 	 1.087 	 94.971
0.5394922 	 16.2865342 	 1182.4021 	 1.087 	 94.946
0.5412933 	 16.5021076 	 1194.0020 	 1.087 	 94.943
0.5430758 	 16.7215918 	 1215.5830 	 1.088 	 94.964
0.5448380 	 16.9349131 	 1238.8355 	 1.087 	 94.949
0.5465835 	 17.1534000 	 1254.9603 	 1.087 	 94.930
0.5483090 	 17.3780251 	 1284.2977 	 1.087 	 94.958
0.5500182 	 17.5957564 	 1328.2528 	 1.087 	 94.903
0.5517073 	 17.8187573 	 1379.5684 	 1.088 	 94.937
0.5533817 	 18.0457388 	 1445.6368 	 1.087 	 94.915
0.5550384 	 18.2742975 	 1543.9257 	 1.087 	 94.914
0.5566782 	 18.4934431 	 1691.7797 	 1.088 	 94.904
0.5583010 	 18.7158866 	 1938.9388 	 1.087 	 94.923
0.5599107 	 18.9369196 	 2354.6769 	 1.087 	 94.897
0.5615033 	 19.1574275 	 3050.1818 	 1.086 	 94.892
0.5630824 	 19.3813887 	 3994.2241 	 1.085 	 94.897
0.5646469 	 19.5959578 	 5657.2639 	 1.085 	 94.878
0.5661972 	 19.8235811 	 8274.2972 	 1.084 	 94.894
0.5677328 	 20.0528020 	 12118.6369 	 1.085 	 94.900
0.5692546 	 20.2711344 	 17908.1723 	 1.086 	 94.859
0.5707625 	 20.4976023 	 26419.5523 	 1.086 	 94.867
0.5722572 	 20.7363961 	 37270.8452 	 1.086 	 94.875
0.5737374 	 20.9814829 	 51213.6112 	 1.088 	 94.846
0.5752029 	 21.2347680 	 69133.1612 	 1.089 	 94.869
0.5766540 	 21.4975559 	 89988.5940 	 1.090 	 94.853
0.5780895 	 21.7731052 	 113501.9513 	 1.092 	 94.830
0.5795085 	 22.0821570 	 137401.8667 	 1.094 	 94.862
0.5809100 	 22.3860523 	 162270.9706 	 1.097 	 94.827
0.5822940 	 22.7120028 	 185806.7010 	 1.098 	 94.833
0.5836605 	 23.0420119 	 206493.1435 	 1.100 	 94.816
0.5850105 	 23.3877652 	 224146.1747 	 1.101 	 94.798
0.5863421 	 23.7431392 	 234261.6626 	 1.103 	 94.801
0.5876560 	 24.0912983 	 242429.7910 	 1.104 	 94.786
0.5889528 	 24.4514588 	 248731.4909 	 1.105 	 94.796
0.5902323 	 24.7955578 	 251008.9220 	 1.106 	 94.790
0.5914961 	 25.1525615 	 253032.5479 	 1.105 	 94.807
0.5927443 	 25.4939031 	 259452.7820 	 1.104 	 94.846
0.5939781 	 25.8378890 	 277794.2266 	 1.103 	 94.881
0.5951979 	 26.1694937 	 312464.6520 	 1.101 	 94.901
0.5964041 	 26.5084838 	 362517.1833 	 1.099 	 94.938
0.5975962 	 26.8461161 	 427104.6229 	 1.097 	 94.953
0.5987750 	 27.2154790 	 500825.1196 	 1.095 	 95.012
0.5999395 	 27.6086707 	 575820.8150 	 1.094 	 95.049
0.6010882 	 28.0142227 	 648517.9736 	 1.093 	 95.068
0.6022216 	 28.4526928 	 711429.8197 	 1.092 	 95.083
0.6033377 	 28.9161383 	 763846.6400 	 1.092 	 95.075
0.6044374 	 29.4142048 	 804094.7856 	 1.092 	 95.060
0.6055191 	 29.9295172 	 834635.9624 	 1.093 	 95.075
0.6065841 	 30.4781924 	 855715.6618 	 1.093 	 95.083
0.6076305 	 31.0281613 	 870108.9958 	 1.095 	 95.058
0.6086600 	 31.6048581 	 882485.1829 	 1.096 	 95.036
0.6096715 	 32.1979472 	 887826.8986 	 1.096 	 95.038
0.6106653 	 32.8108159 	 894164.0972 	 1.098 	 95.026
0.6116416 	 33.4348990 	 894367.3119 	 1.099 	 95.017
0.6125999 	 34.0745102 	 892054.7538 	 1.100 	 95.010
0.6135410 	 34.7194238 	 886275.4690 	 1.101 	 94.991
0.6144657 	 35.3837394 	 878905.1829 	 1.102 	 94.974
0.6153738 	 36.0706070 	 869646.2716 	 1.103 	 94.946
0.6162659 	 36.7602655 	 858609.1710 	 1.104 	 94.930
0.6171416 	 37.4827106 	 846417.5301 	 1.105 	 94.932
0.6180021 	 38.1874011 	 831246.6496 	 1.106 	 94.906
0.6188467 	 38.9233353 	 811971.4541 	 1.107 	 94.892
0.6196762 	 39.6882290 	 793201.9839 	 1.108 	 94.933
0.6204906 	 40.4396002 	 771886.8371 	 1.109 	 94.896
0.6212898 	 41.2091547 	 746125.7373 	 1.110 	 94.877
0.6220753 	 42.0045755 	 715795.1674 	 1.111 	 94.879
0.6228473 	 42.8015932 	 686644.9968 	 1.112 	 94.844
0.6236051 	 43.5985581 	 655999.1082 	 1.113 	 94.861
0.6243492 	 44.4119789 	 626798.1564 	 1.114 	 94.821
0.6250804 	 45.2406355 	 596396.2101 	 1.114 	 94.820
0.6257987 	 46.0811141 	 569243.8633 	 1.114 	 94.856
0.6265041 	 46.9162356 	 542396.2397 	 1.115 	 94.832
0.6271974 	 47.7819191 	 525127.1719 	 1.115 	 94.833
0.6278790 	 48.6208920 	 510430.7765 	 1.115 	 94.814
0.6285495 	 49.4754542 	 502106.9250 	 1.115 	 94.795
0.6292090 	 50.3145043 	 499460.6394 	 1.116 	 94.824
0.6298579 	 51.1624169 	 500863.7125 	 1.117 	 94.801
