N=100 	 R=1000000 	 s=1 	 Save [density, Z, rho_t, like/unlike, events per sweep]
0.0001343 	 1.0005109 	 1.1026 	 1.008 	 10.124
0.0132443 	 1.1626919 	 12.1526 	 0.951 	 46.760
0.0260724 	 1.1528195 	 22.7875 	 1.005 	 78.880
0.0384915 	 1.1917848 	 33.4287 	 1.013 	 88.262
0.0505174 	 1.2395701 	 43.9373 	 1.016 	 92.019
0.0621726 	 1.2921226 	 54.3128 	 1.018 	 93.761
0.0734637 	 1.3482055 	 64.7825 	 1.019 	 94.742
0.0844311 	 1.4076608 	 75.2837 	 1.020 	 95.252
0.0950603 	 1.4695563 	 85.0763 	 1.021 	 95.519
0.1053983 	 1.5336513 	 94.9772 	 1.022 	 95.637
0.1154397 	 1.6001012 	 104.8862 	 1.024 	 95.763
0.1252033 	 1.6682788 	 114.9865 	 1.025 	 95.788
0.1347007 	 1.7385694 	 125.6686 	 1.026 	 95.813
0.1439400 	 1.8099912 	 137.2883 	 1.027 	 95.864
0.1529311 	 1.8841735 	 147.1488 	 1.028 	 95.866
0.1616837 	 1.9595078 	 158.7841 	 1.030 	 95.874
0.1702206 	 2.0367557 	 170.1927 	 1.031 	 95.794
0.1785339 	 2.1155970 	 181.2009 	 1.032 	 95.769
0.1866451 	 2.1967117 	 190.5109 	 1.034 	 95.800
0.1945568 	 2.2785210 	 200.8789 	 1.035 	 95.737
0.2022689 	 2.3623260 	 213.2691 	 1.037 	 95.731
0.2097915 	 2.4475051 	 223.8512 	 1.037 	 95.733
0.2171369 	 2.5337422 	 234.2134 	 1.038 	 95.673
0.2243050 	 2.6228791 	 244.9832 	 1.039 	 95.690
0.2313160 	 2.7126510 	 255.3450 	 1.041 	 95.662
0.2381664 	 2.8044920 	 265.0550 	 1.042 	 95.633
0.2448589 	 2.8972149 	 274.9712 	 1.043 	 95.617
0.2514055 	 2.9921677 	 286.6122 	 1.044 	 95.619
0.2578101 	 3.0879222 	 296.3219 	 1.046 	 95.603
0.2640693 	 3.1856360 	 308.3161 	 1.046 	 95.581
0.2702021 	 3.2861433 	 319.0375 	 1.048 	 95.574
0.2762019 	 3.3866369 	 329.3564 	 1.049 	 95.601
0.2820781 	 3.4882410 	 340.0640 	 1.050 	 95.540
0.2878332 	 3.5926935 	 351.7224 	 1.051 	 95.567
0.2934694 	 3.6976211 	 364.9519 	 1.052 	 95.533
0.2989895 	 3.8055865 	 372.1698 	 1.053 	 95.517
0.3044027 	 3.9138295 	 383.3529 	 1.054 	 95.513
0.3097120 	 4.0236860 	 392.9799 	 1.055 	 95.507
0.3149138 	 4.1352605 	 402.2499 	 1.056 	 95.492
0.3200152 	 4.2470811 	 410.9437 	 1.057 	 95.467
0.3250209 	 4.3616726 	 420.9646 	 1.057 	 95.458
0.3299356 	 4.4777110 	 429.2128 	 1.058 	 95.443
0.3347592 	 4.5955923 	 440.1106 	 1.061 	 95.427
0.3394870 	 4.7137786 	 450.8014 	 1.061 	 95.420
0.3441336 	 4.8346460 	 462.6277 	 1.062 	 95.438
0.3486995 	 4.9563812 	 473.0506 	 1.062 	 95.404
0.3531788 	 5.0794129 	 487.2118 	 1.063 	 95.413
0.3575803 	 5.2040901 	 496.8778 	 1.064 	 95.395
0.3619077 	 5.3295386 	 504.8270 	 1.065 	 95.354
0.3661602 	 5.4575230 	 517.3255 	 1.066 	 95.370
0.3703393 	 5.5876553 	 529.0064 	 1.066 	 95.359
0.3744477 	 5.7178086 	 539.0817 	 1.067 	 95.346
0.3784871 	 5.8488079 	 549.5501 	 1.068 	 95.340
0.3824584 	 5.9832233 	 562.4672 	 1.070 	 95.336
0.3863607 	 6.1163357 	 573.1142 	 1.070 	 95.300
0.3901987 	 6.2530353 	 584.4817 	 1.070 	 95.329
0.3939758 	 6.3905828 	 594.3153 	 1.071 	 95.289
0.3976971 	 6.5278996 	 602.5886 	 1.071 	 95.266
0.4013564 	 6.6690211 	 612.7716 	 1.072 	 95.257
0.4049606 	 6.8110861 	 620.8335 	 1.073 	 95.276
0.4085045 	 6.9537555 	 628.1882 	 1.075 	 95.223
0.4119963 	 7.1000431 	 637.1780 	 1.075 	 95.270
0.4154360 	 7.2451260 	 647.0855 	 1.075 	 95.225
0.4188228 	 7.3943329 	 662.1303 	 1.076 	 95.249
0.4221567 	 7.5422817 	 670.2737 	 1.076 	 95.249
0.4254417 	 7.6909193 	 681.3361 	 1.077 	 95.212
0.4286798 	 7.8442403 	 691.8632 	 1.077 	 95.222
0.4318703 	 7.9971911 	 704.0612 	 1.078 	 95.225
0.4350143 	 8.1507686 	 712.6949 	 1.078 	 95.218
0.4381143 	 8.3049207 	 720.0427 	 1.078 	 95.187
0.4411671 	 8.4615191 	 729.2613 	 1.079 	 95.201
0.4441793 	 8.6188677 	 737.6286 	 1.080 	 95.148
0.4471494 	 8.7798142 	 746.5604 	 1.080 	 95.177
0.4500768 	 8.9422303 	 762.0392 	 1.081 	 95.177
0.4529660 	 9.1037256 	 772.6440 	 1.081 	 95.140
0.4558137 	 9.2673468 	 786.2427 	 1.082 	 95.140
0.4586221 	 9.4323059 	 800.2271 	 1.082 	 95.140
0.4613923 	 9.5998654 	 812.7818 	 1.083 	 95.143
0.4641262 	 9.7667914 	 822.2088 	 1.083 	 95.137
0.4668246 	 9.9340187 	 832.8707 	 1.083 	 95.127
0.4694869 	 10.1048765 	 842.2184 	 1.083 	 95.131
0.4721147 	 10.2777147 	 859.3518 	 1.084 	 95.121
0.4747085 	 10.4523710 	 870.3509 	 1.085 	 95.139
0.4772677 	 10.6238125 	 882.7377 	 1.085 	 95.069
0.4797929 	 10.8017011 	 892.1031 	 1.085 	 95.096
0.4822896 	 10.9783084 	 895.6465 	 1.085 	 95.061
0.4847521 	 11.1565793 	 909.8669 	 1.085 	 95.080
0.4871860 	 11.3364220 	 920.9020 	 1.085 	 95.060
0.4895870 	 11.5165913 	 920.9394 	 1.085 	 95.043
0.4919579 	 11.6966164 	 924.2050 	 1.085 	 95.030
0.4943020 	 11.8818833 	 938.5989 	 1.086 	 95.050
0.4966171 	 12.0697743 	 945.9892 	 1.087 	 95.058
0.4989027 	 12.2561994 	 954.1757 	 1.087 	 95.048
0.5011613 	 12.4467188 	 969.5497 	 1.088 	 95.069
0.5033934 	 12.6325005 	 982.2132 	 1.087 	 95.032
0.5055996 	 12.8266539 	 986.4321 	 1.087 	 95.057
0.5077786 	 13.0170217 	 996.5477 	 1.088 	 95.026
0.5099345 	 13.2085428 	 1007.6240 	 1.088 	 95.019
0.5120636 	 13.4027337 	 1021.3705 	 1.088 	 95.015
0.5141708 	 13.5968855 	 1029.0799 	 1.089 	 94.985
0.5162523 	 13.7988199 	 1037.9694 	 1.089 	 95.029
0.5183086 	 13.9993920 	 1041.1512 	 1.089 	 95.027
0.5203417 	 14.1949095 	 1048.7772 	 1.089 	 94.977
0.5223528 	 14.4011387 	 1050.2345 	 1.089 	 95.014
0.5243424 	 14.5989552 	 1063.3911 	 1.089 	 94.966
0.5263078 	 14.8086267 	 1080.8525 	 1.088 	 94.979
0.5282534 	 15.0123739 	 1089.2896 	 1.089 	 94.947
0.5301763 	 15.2220949 	 1101.0914 	 1.090 	 94.965
0.5320775 	 15.4312299 	 1116.7840 	 1.090 	 94.974
0.5339572 	 15.6424690 	 1126.1447 	 1.089 	 94.958
0.5358163 	 15.8567115 	 1143.7584 	 1.089 	 94.967
0.5376560 	 16.0708218 	 1152.9533 	 1.089 	 94.962
0.5394758 	 16.2833282 	 1170.1866 	 1.089 	 94.953
0.5412769 	 16.5066384 	 1193.2131 	 1.090 	 94.962
0.5430583 	 16.7210561 	 1215.1733 	 1.089 	 94.973
0.5448216 	 16.9348115 	 1238.6991 	 1.089 	 94.927
0.5465646 	 17.1581836 	 1263.7383 	 1.089 	 94.932
0.5482907 	 17.3815226 	 1277.2314 	 1.087 	 94.934
0.5499990 	 17.6081485 	 1313.2273 	 1.087 	 94.948
0.5516886 	 17.8316971 	 1352.1471 	 1.087 	 94.912
0.5533619 	 18.0629536 	 1405.8502 	 1.087 	 94.915
0.5550185 	 18.2838800 	 1460.4007 	 1.086 	 94.923
0.5566573 	 18.5126033 	 1534.9511 	 1.085 	 94.907
0.5582797 	 18.7419053 	 1626.3334 	 1.085 	 94.931
0.5598872 	 18.9749704 	 1760.5764 	 1.084 	 94.914
0.5614768 	 19.2061339 	 1911.9169 	 1.084 	 94.918
0.5630517 	 19.4420010 	 2126.4703 	 1.084 	 94.895
0.5646094 	 19.6818561 	 2403.8202 	 1.084 	 94.880
0.5661521 	 19.9252118 	 2781.8892 	 1.083 	 94.900
0.5676778 	 20.1721841 	 3271.2717 	 1.082 	 94.906
0.5691891 	 20.4138182 	 3927.4997 	 1.082 	 94.859
0.5706855 	 20.6579147 	 4814.8545 	 1.081 	 94.875
0.5721667 	 20.9181605 	 5812.2804 	 1.080 	 94.877
0.5736325 	 21.1741706 	 7137.8217 	 1.079 	 94.856
0.5750837 	 21.4323769 	 8994.7086 	 1.077 	 94.861
0.5765199 	 21.7038271 	 11374.0764 	 1.075 	 94.872
0.5779400 	 21.9760579 	 14438.3140 	 1.072 	 94.861
0.5793442 	 22.2605516 	 18379.7379 	 1.069 	 94.856
0.5807340 	 22.5558293 	 23234.5707 	 1.066 	 94.855
0.5821067 	 22.8622888 	 29258.2275 	 1.063 	 94.865
0.5834650 	 23.1667030 	 37019.9893 	 1.059 	 94.854
0.5848076 	 23.4842910 	 46628.6712 	 1.054 	 94.847
0.5861336 	 23.8207930 	 58158.9666 	 1.050 	 94.846
0.5874421 	 24.1572373 	 72753.9540 	 1.045 	 94.831
0.5887333 	 24.5094062 	 89160.8117 	 1.039 	 94.818
0.5900097 	 24.8812204 	 106597.2499 	 1.033 	 94.858
0.5912682 	 25.2642939 	 125636.2291 	 1.029 	 94.846
0.5925096 	 25.6613650 	 144895.8303 	 1.023 	 94.839
0.5937330 	 26.0703567 	 164049.3068 	 1.019 	 94.804
0.5949387 	 26.4921344 	 184038.3091 	 1.015 	 94.823
0.5961267 	 26.9261900 	 201657.4896 	 1.012 	 94.810
0.5972976 	 27.3751131 	 221269.4535 	 1.007 	 94.818
0.5984504 	 27.8389033 	 237884.9915 	 1.004 	 94.795
0.5995856 	 28.3182534 	 252784.4759 	 1.001 	 94.791
0.6007025 	 28.8049185 	 266852.7114 	 1.000 	 94.790
0.6018014 	 29.3041195 	 280821.3654 	 0.997 	 94.765
0.6028828 	 29.8236698 	 290757.0656 	 0.995 	 94.767
0.6039476 	 30.3513378 	 298073.1543 	 0.994 	 94.789
0.6049940 	 30.8720188 	 299063.0164 	 0.994 	 94.741
0.6060236 	 31.4125524 	 299747.3299 	 0.994 	 94.734
0.6070370 	 31.9612737 	 297290.5718 	 0.994 	 94.700
0.6080350 	 32.5045918 	 290541.0549 	 0.996 	 94.689
0.6090172 	 33.0534402 	 284694.3941 	 0.998 	 94.638
0.6099834 	 33.5930996 	 276499.3560 	 1.000 	 94.624
0.6109357 	 34.1302538 	 268237.9869 	 1.003 	 94.559
0.6118752 	 34.6417970 	 262312.9421 	 1.007 	 94.464
0.6128015 	 35.1699403 	 262041.0748 	 1.011 	 94.428
0.6137157 	 35.6747090 	 270962.5992 	 1.015 	 94.350
0.6146166 	 36.1923542 	 293541.0788 	 1.021 	 94.282
0.6155060 	 36.6997059 	 330126.5647 	 1.025 	 94.208
0.6163847 	 37.2129528 	 381027.4058 	 1.031 	 94.153
0.6172518 	 37.7785857 	 441138.1202 	 1.035 	 94.109
0.6181064 	 38.3590123 	 505399.9153 	 1.040 	 93.985
0.6189484 	 39.0008433 	 573627.8179 	 1.043 	 93.970
0.6197778 	 39.6579242 	 636505.2720 	 1.046 	 93.883
0.6205932 	 40.3657950 	 693902.2607 	 1.049 	 93.830
0.6213946 	 41.1099313 	 741266.7948 	 1.050 	 93.803
0.6221824 	 41.8848831 	 785599.5030 	 1.052 	 93.759
0.6229556 	 42.7001858 	 820432.5792 	 1.053 	 93.739
0.6237147 	 43.5490593 	 851060.8976 	 1.054 	 93.718
0.6244587 	 44.4039595 	 875141.1473 	 1.054 	 93.678
0.6251892 	 45.2995415 	 896106.8014 	 1.055 	 93.663
0.6259059 	 46.2292643 	 912644.4742 	 1.056 	 93.655
0.6266094 	 47.1748294 	 925099.2130 	 1.056 	 93.656
0.6272986 	 48.1261458 	 938136.3646 	 1.057 	 93.611
0.6279743 	 49.1245091 	 946410.5206 	 1.057 	 93.627
0.6286367 	 50.1253106 	 955016.2955 	 1.057 	 93.610
0.6292864 	 51.1453180 	 964301.6773 	 1.057 	 93.594
0.6299235 	 52.1822411 	 970202.0618 	 1.058 	 93.542
