N=100 	 R=1000000 	 s=1 	 Save [density, Z, rho_t, like/unlike, events per sweep]
0.0001346 	 1.0005128 	 1.1027 	 1.010 	 10.125
0.0132448 	 1.1626790 	 12.2339 	 0.950 	 46.771
0.0260641 	 1.1527345 	 22.9426 	 1.004 	 78.901
0.0384861 	 1.1917796 	 33.5362 	 1.013 	 88.216
0.0505016 	 1.2394812 	 44.0763 	 1.016 	 92.022
0.0621563 	 1.2921436 	 54.3073 	 1.018 	 93.804
0.0734496 	 1.3480859 	 64.8345 	 1.018 	 94.769
0.0844048 	 1.4074730 	 74.5920 	 1.020 	 95.229
0.0950559 	 1.4693964 	 85.1521 	 1.021 	 95.514
0.1053947 	 1.5336904 	 96.0388 	 1.023 	 95.680
0.1154424 	 1.6000016 	 106.3014 	 1.024 	 95.739
0.1252002 	 1.6682994 	 116.6871 	 1.024 	 95.793
0.1347059 	 1.7387004 	 127.2202 	 1.026 	 95.833
0.1439500 	 1.8101918 	 137.7867 	 1.027 	 95.873
0.1529442 	 1.8840554 	 148.3914 	 1.028 	 95.838
0.1617002 	 1.9597489 	 159.4735 	 1.030 	 95.823
0.1702270 	 2.0367201 	 169.6520 	 1.031 	 95.795
0.1785355 	 2.1157794 	 181.2014 	 1.032 	 95.786
0.1866417 	 2.1961398 	 192.5859 	 1.033 	 95.739
0.1945455 	 2.2780948 	 203.0367 	 1.035 	 95.728
0.2022607 	 2.3622306 	 214.0752 	 1.036 	 95.749
0.2097880 	 2.4473730 	 224.4831 	 1.037 	 95.719
0.2171333 	 2.5341777 	 233.9401 	 1.038 	 95.699
0.2243151 	 2.6226870 	 244.5055 	 1.039 	 95.683
0.2313234 	 2.7127604 	 253.8264 	 1.041 	 95.696
0.2381662 	 2.8042790 	 264.9720 	 1.042 	 95.664
0.2448532 	 2.8967746 	 276.3991 	 1.043 	 95.627
0.2513982 	 2.9917745 	 287.0027 	 1.044 	 95.619
0.2578029 	 3.0882251 	 297.1620 	 1.046 	 95.615
0.2640638 	 3.1861504 	 307.9570 	 1.047 	 95.621
0.2701942 	 3.2855973 	 320.4256 	 1.047 	 95.579
0.2761973 	 3.3858618 	 332.5010 	 1.049 	 95.565
0.2820695 	 3.4884466 	 340.5201 	 1.050 	 95.560
0.2878267 	 3.5926240 	 351.6791 	 1.051 	 95.545
0.2934572 	 3.6976550 	 365.1880 	 1.052 	 95.499
0.2989841 	 3.8039339 	 373.8297 	 1.053 	 95.505
0.3043966 	 3.9133096 	 384.7742 	 1.054 	 95.514
0.3097082 	 4.0229788 	 389.5026 	 1.055 	 95.470
0.3149086 	 4.1346247 	 399.6694 	 1.056 	 95.477
0.3200129 	 4.2473194 	 413.9782 	 1.057 	 95.464
0.3250200 	 4.3605915 	 423.7317 	 1.057 	 95.430
0.3299297 	 4.4769512 	 435.2691 	 1.059 	 95.443
0.3347474 	 4.5949984 	 443.9518 	 1.060 	 95.446
0.3394811 	 4.7146822 	 455.9151 	 1.060 	 95.446
0.3441263 	 4.8347293 	 464.1835 	 1.061 	 95.419
0.3486903 	 4.9557377 	 473.0674 	 1.063 	 95.398
0.3531762 	 5.0790679 	 486.9638 	 1.063 	 95.420
0.3575779 	 5.2042470 	 496.5739 	 1.065 	 95.385
0.3619025 	 5.3305315 	 507.8134 	 1.065 	 95.349
0.3661553 	 5.4575189 	 512.0164 	 1.066 	 95.373
0.3703333 	 5.5856610 	 523.5074 	 1.067 	 95.340
0.3744413 	 5.7163423 	 536.0413 	 1.067 	 95.342
0.3784784 	 5.8495162 	 545.8304 	 1.068 	 95.353
0.3824487 	 5.9837271 	 557.6364 	 1.069 	 95.345
0.3863568 	 6.1169329 	 570.0027 	 1.070 	 95.306
0.3901989 	 6.2537094 	 576.3421 	 1.070 	 95.321
0.3939818 	 6.3916392 	 582.9404 	 1.071 	 95.280
0.3976997 	 6.5289296 	 588.9253 	 1.072 	 95.284
0.4013579 	 6.6694206 	 601.3741 	 1.072 	 95.295
0.4049586 	 6.8098875 	 613.6751 	 1.073 	 95.243
0.4085057 	 6.9547806 	 618.3859 	 1.074 	 95.269
0.4119967 	 7.0985443 	 628.9611 	 1.074 	 95.238
0.4154359 	 7.2467973 	 639.1075 	 1.075 	 95.261
0.4188211 	 7.3930364 	 648.6188 	 1.075 	 95.220
0.4221538 	 7.5401351 	 662.2457 	 1.076 	 95.198
0.4254389 	 7.6903384 	 674.3960 	 1.077 	 95.226
0.4286759 	 7.8435187 	 684.2610 	 1.077 	 95.200
0.4318671 	 7.9961424 	 691.2347 	 1.078 	 95.214
0.4350104 	 8.1491278 	 703.0303 	 1.078 	 95.189
0.4381085 	 8.3057782 	 710.8597 	 1.079 	 95.210
0.4411622 	 8.4621544 	 718.8735 	 1.080 	 95.186
0.4441738 	 8.6224167 	 725.3764 	 1.080 	 95.178
0.4471408 	 8.7782120 	 741.6304 	 1.081 	 95.151
0.4500670 	 8.9416391 	 754.9646 	 1.080 	 95.190
0.4529543 	 9.1040349 	 770.2561 	 1.081 	 95.166
0.4558029 	 9.2668456 	 778.0682 	 1.081 	 95.177
0.4586108 	 9.4296441 	 787.4577 	 1.081 	 95.130
0.4613817 	 9.5985380 	 795.2404 	 1.082 	 95.149
0.4641170 	 9.7666628 	 805.3820 	 1.083 	 95.140
0.4668108 	 9.9344648 	 811.9828 	 1.083 	 95.120
0.4694725 	 10.1055927 	 821.7542 	 1.083 	 95.121
0.4720968 	 10.2744261 	 828.9684 	 1.083 	 95.109
0.4746909 	 10.4496304 	 836.1527 	 1.084 	 95.100
0.4772497 	 10.6222189 	 839.9745 	 1.085 	 95.108
0.4797780 	 10.7992868 	 854.9747 	 1.085 	 95.108
0.4822726 	 10.9774055 	 861.7368 	 1.085 	 95.067
0.4847381 	 11.1544303 	 874.5591 	 1.085 	 95.066
0.4871727 	 11.3359349 	 881.2302 	 1.086 	 95.088
0.4895768 	 11.5166147 	 888.5877 	 1.086 	 95.075
0.4919492 	 11.6989635 	 898.1493 	 1.086 	 95.055
0.4942936 	 11.8845607 	 911.1052 	 1.087 	 95.079
0.4966099 	 12.0676495 	 920.5953 	 1.087 	 95.037
0.4988975 	 12.2548210 	 931.8161 	 1.087 	 95.044
0.5011579 	 12.4400574 	 941.1797 	 1.087 	 95.019
0.5033902 	 12.6330864 	 952.4454 	 1.087 	 95.042
0.5055974 	 12.8238085 	 969.1471 	 1.087 	 95.037
0.5077785 	 13.0165830 	 969.9868 	 1.087 	 95.004
0.5099333 	 13.2085415 	 976.2677 	 1.087 	 95.026
0.5120619 	 13.4071971 	 987.7650 	 1.087 	 95.025
0.5141661 	 13.5990176 	 1000.4808 	 1.087 	 95.009
0.5162472 	 13.7973271 	 1009.6430 	 1.088 	 94.995
0.5183041 	 13.9992442 	 1026.2532 	 1.087 	 95.017
0.5203382 	 14.1984994 	 1037.1617 	 1.087 	 95.006
0.5223493 	 14.3945926 	 1050.3254 	 1.088 	 94.987
0.5243375 	 14.6057166 	 1054.6915 	 1.088 	 95.004
0.5263037 	 14.8052033 	 1066.1555 	 1.087 	 94.970
0.5282489 	 15.0153766 	 1082.6894 	 1.088 	 94.983
0.5301725 	 15.2213167 	 1080.3161 	 1.087 	 94.988
0.5320741 	 15.4299884 	 1094.8438 	 1.087 	 94.977
0.5339548 	 15.6359390 	 1103.1691 	 1.086 	 94.949
0.5358145 	 15.8463449 	 1118.3427 	 1.087 	 94.956
0.5376548 	 16.0631022 	 1127.6875 	 1.087 	 94.955
0.5394772 	 16.2841238 	 1137.7403 	 1.087 	 94.961
0.5412790 	 16.4990222 	 1154.5975 	 1.086 	 94.947
0.5430609 	 16.7085987 	 1170.3967 	 1.086 	 94.901
0.5448235 	 16.9371630 	 1189.3544 	 1.087 	 94.916
0.5465680 	 17.1602082 	 1211.5662 	 1.086 	 94.893
0.5482936 	 17.3824555 	 1226.0646 	 1.086 	 94.918
0.5500024 	 17.6034502 	 1252.0373 	 1.084 	 94.900
0.5516910 	 17.8286234 	 1281.5228 	 1.084 	 94.877
0.5533629 	 18.0608152 	 1312.4544 	 1.084 	 94.912
0.5550180 	 18.2863623 	 1356.9996 	 1.083 	 94.893
0.5566556 	 18.5206004 	 1407.0264 	 1.083 	 94.875
0.5582761 	 18.7556715 	 1463.2710 	 1.083 	 94.896
0.5598814 	 18.9840845 	 1535.3085 	 1.082 	 94.893
0.5614704 	 19.2271529 	 1638.7289 	 1.082 	 94.911
0.5630416 	 19.4699285 	 1769.6869 	 1.081 	 94.886
0.5645973 	 19.7085503 	 1946.0780 	 1.081 	 94.878
0.5661365 	 19.9507238 	 2199.8504 	 1.082 	 94.866
0.5676595 	 20.2012828 	 2479.3448 	 1.082 	 94.892
0.5691688 	 20.4504975 	 2914.1328 	 1.082 	 94.842
0.5706619 	 20.7056692 	 3463.6194 	 1.083 	 94.878
0.5721398 	 20.9587176 	 4211.3269 	 1.083 	 94.889
0.5736028 	 21.2215429 	 5194.6709 	 1.084 	 94.868
0.5750507 	 21.4893275 	 6386.7613 	 1.083 	 94.825
0.5764813 	 21.7601296 	 7915.5983 	 1.084 	 94.812
0.5778989 	 22.0465975 	 9756.1322 	 1.085 	 94.839
0.5792996 	 22.3375177 	 11906.3617 	 1.085 	 94.830
0.5806843 	 22.6281070 	 14593.4823 	 1.086 	 94.785
0.5820535 	 22.9313697 	 17635.3378 	 1.087 	 94.781
0.5834048 	 23.2357434 	 21106.5257 	 1.088 	 94.764
0.5847418 	 23.5672211 	 25008.8464 	 1.090 	 94.761
0.5860631 	 23.8857380 	 29833.4911 	 1.092 	 94.702
0.5873677 	 24.2360089 	 34946.6167 	 1.093 	 94.696
0.5886557 	 24.5809448 	 40351.4361 	 1.095 	 94.673
0.5899280 	 24.9499942 	 45938.3714 	 1.098 	 94.659
0.5911832 	 25.3311471 	 52035.7922 	 1.100 	 94.640
0.5924217 	 25.7282979 	 57838.4529 	 1.101 	 94.646
0.5936427 	 26.1326654 	 64579.8665 	 1.102 	 94.603
0.5948459 	 26.5502187 	 70860.7797 	 1.104 	 94.572
0.5960321 	 26.9885452 	 77302.6248 	 1.105 	 94.575
0.5971994 	 27.4272819 	 83538.1003 	 1.106 	 94.545
0.5983493 	 27.8981758 	 89040.2221 	 1.106 	 94.523
0.5994815 	 28.3679593 	 93187.7376 	 1.105 	 94.497
0.6005965 	 28.8555949 	 97566.0196 	 1.104 	 94.498
0.6016938 	 29.3556604 	 101215.6206 	 1.102 	 94.484
0.6027741 	 29.8615411 	 104605.0942 	 1.100 	 94.517
0.6038366 	 30.3692342 	 108734.6063 	 1.097 	 94.509
0.6048840 	 30.8744927 	 114853.6424 	 1.091 	 94.487
0.6059140 	 31.3925826 	 123415.0760 	 1.084 	 94.534
0.6069295 	 31.8927823 	 137447.4403 	 1.075 	 94.546
0.6079296 	 32.3942600 	 158579.1989 	 1.066 	 94.597
0.6089159 	 32.8897260 	 191377.7649 	 1.053 	 94.631
0.6098889 	 33.3837324 	 236777.6607 	 1.040 	 94.702
0.6108486 	 33.8505180 	 299372.3904 	 1.026 	 94.732
0.6117961 	 34.3473340 	 372130.6915 	 1.012 	 94.787
0.6127312 	 34.8538367 	 454296.8764 	 0.999 	 94.868
0.6136542 	 35.3575450 	 541990.2769 	 0.986 	 94.906
0.6145635 	 35.8934166 	 624045.8929 	 0.976 	 94.917
0.6154604 	 36.4737648 	 700599.7795 	 0.967 	 94.970
0.6163434 	 37.0859027 	 763895.0252 	 0.960 	 95.008
0.6172128 	 37.7146018 	 815066.4473 	 0.955 	 94.993
0.6180673 	 38.4025802 	 854436.6521 	 0.952 	 95.015
0.6189075 	 39.1097386 	 883215.9794 	 0.949 	 95.027
0.6197329 	 39.8558625 	 903297.7519 	 0.948 	 95.044
0.6205437 	 40.6156837 	 919118.6562 	 0.946 	 95.032
0.6213396 	 41.4102897 	 928591.3303 	 0.947 	 95.028
0.6221210 	 42.2125480 	 935369.2393 	 0.947 	 94.981
0.6228878 	 43.0612886 	 938980.1668 	 0.947 	 95.034
0.6236399 	 43.9125272 	 939056.3901 	 0.948 	 95.014
0.6243785 	 44.7956912 	 938358.7060 	 0.949 	 94.985
0.6251029 	 45.6841837 	 938474.4566 	 0.950 	 94.969
0.6258132 	 46.5962409 	 936765.9517 	 0.951 	 94.986
0.6265106 	 47.5435671 	 933464.4171 	 0.952 	 94.995
0.6271940 	 48.5010629 	 928631.1836 	 0.953 	 94.983
0.6278648 	 49.4845617 	 922862.5143 	 0.954 	 94.943
0.6285229 	 50.4806655 	 915588.6339 	 0.956 	 94.987
0.6291686 	 51.4867790 	 906552.1319 	 0.957 	 94.949
0.6298020 	 52.5304174 	 894987.6333 	 0.959 	 94.954
