N=100 	 R=1000000 	 s=1 	 Save [density, Z, rho_t, like/unlike, events per sweep]
0.0001340 	 1.0005074 	 1.1026 	 1.005 	 10.124
0.0132593 	 1.1625160 	 12.1986 	 0.950 	 46.812
0.0260957 	 1.1528533 	 22.7912 	 1.004 	 78.924
0.0385332 	 1.1919123 	 33.6637 	 1.012 	 88.257
0.0505556 	 1.2396945 	 43.7850 	 1.017 	 92.018
0.0622002 	 1.2922642 	 54.6743 	 1.017 	 93.774
0.0734976 	 1.3484103 	 65.3386 	 1.019 	 94.780
0.0844595 	 1.4078236 	 75.8337 	 1.020 	 95.238
0.0951006 	 1.4696382 	 86.3741 	 1.021 	 95.497
0.1054367 	 1.5339425 	 96.7775 	 1.022 	 95.677
0.1154790 	 1.6003072 	 106.9350 	 1.024 	 95.729
0.1252390 	 1.6686692 	 116.5406 	 1.025 	 95.769
0.1347337 	 1.7389091 	 126.7736 	 1.026 	 95.796
0.1439818 	 1.8104552 	 138.0816 	 1.027 	 95.881
0.1529740 	 1.8841343 	 149.7303 	 1.028 	 95.844
0.1617332 	 1.9599765 	 161.1189 	 1.029 	 95.833
0.1702603 	 2.0371893 	 170.9474 	 1.031 	 95.815
0.1785718 	 2.1159983 	 181.9018 	 1.033 	 95.804
0.1866745 	 2.1964114 	 192.8791 	 1.034 	 95.754
0.1945764 	 2.2785992 	 204.2986 	 1.035 	 95.741
0.2022868 	 2.3624957 	 217.2622 	 1.036 	 95.748
0.2098081 	 2.4478592 	 228.3525 	 1.038 	 95.720
0.2171540 	 2.5342930 	 239.3029 	 1.039 	 95.696
0.2243288 	 2.6231608 	 250.7380 	 1.040 	 95.738
0.2313445 	 2.7129862 	 261.7504 	 1.041 	 95.698
0.2381940 	 2.8048512 	 272.7234 	 1.042 	 95.638
0.2448841 	 2.8979759 	 284.0464 	 1.043 	 95.642
0.2514300 	 2.9922561 	 293.7642 	 1.044 	 95.603
0.2578331 	 3.0882398 	 303.3837 	 1.045 	 95.608
0.2640908 	 3.1866387 	 316.8267 	 1.047 	 95.618
0.2702197 	 3.2863962 	 330.0648 	 1.048 	 95.613
0.2762168 	 3.3864314 	 339.6811 	 1.048 	 95.575
0.2820857 	 3.4886100 	 350.6609 	 1.050 	 95.538
0.2878344 	 3.5924093 	 356.6673 	 1.051 	 95.531
0.2934721 	 3.6981994 	 367.2829 	 1.052 	 95.509
0.2989983 	 3.8051802 	 372.5349 	 1.053 	 95.517
0.3044115 	 3.9134434 	 382.6002 	 1.054 	 95.492
0.3097182 	 4.0229944 	 391.2623 	 1.055 	 95.457
0.3149217 	 4.1344489 	 402.1025 	 1.056 	 95.473
0.3200221 	 4.2473710 	 410.9033 	 1.057 	 95.470
0.3250288 	 4.3615846 	 419.8816 	 1.058 	 95.462
0.3299429 	 4.4776153 	 430.9165 	 1.059 	 95.446
0.3347615 	 4.5951666 	 443.8237 	 1.060 	 95.445
0.3394945 	 4.7140340 	 450.2577 	 1.060 	 95.413
0.3441398 	 4.8344593 	 460.3416 	 1.061 	 95.414
0.3486993 	 4.9555798 	 470.3231 	 1.062 	 95.410
0.3531808 	 5.0791824 	 481.8250 	 1.063 	 95.407
0.3575803 	 5.2035856 	 491.1055 	 1.064 	 95.350
0.3619060 	 5.3302629 	 507.2100 	 1.065 	 95.373
0.3661545 	 5.4562743 	 516.4291 	 1.066 	 95.360
0.3703339 	 5.5857532 	 527.6732 	 1.066 	 95.334
0.3744396 	 5.7163582 	 539.2893 	 1.067 	 95.343
0.3784746 	 5.8480295 	 549.6437 	 1.069 	 95.312
0.3824457 	 5.9814366 	 559.5689 	 1.068 	 95.317
0.3863510 	 6.1173462 	 562.3745 	 1.070 	 95.329
0.3901924 	 6.2521409 	 570.6701 	 1.071 	 95.294
0.3939700 	 6.3905890 	 580.2755 	 1.072 	 95.302
0.3976884 	 6.5291572 	 591.2727 	 1.072 	 95.267
0.4013488 	 6.6705759 	 603.9854 	 1.073 	 95.291
0.4049526 	 6.8104143 	 618.5443 	 1.073 	 95.253
0.4084973 	 6.9543823 	 632.7099 	 1.074 	 95.244
0.4119890 	 7.0984261 	 644.7377 	 1.075 	 95.233
0.4154287 	 7.2448733 	 657.9274 	 1.075 	 95.220
0.4188162 	 7.3931996 	 666.1510 	 1.076 	 95.256
0.4221517 	 7.5395045 	 679.3610 	 1.076 	 95.205
0.4254389 	 7.6912110 	 685.5943 	 1.077 	 95.217
0.4286760 	 7.8418597 	 697.1768 	 1.077 	 95.222
0.4318681 	 7.9967578 	 711.4678 	 1.078 	 95.219
0.4350093 	 8.1502872 	 721.8846 	 1.078 	 95.208
0.4381098 	 8.3053790 	 730.4236 	 1.078 	 95.182
0.4411628 	 8.4631888 	 739.8138 	 1.079 	 95.206
0.4441733 	 8.6208020 	 748.7004 	 1.080 	 95.184
0.4471420 	 8.7813668 	 761.0311 	 1.080 	 95.189
0.4500707 	 8.9389866 	 764.2935 	 1.080 	 95.136
0.4529558 	 9.1032357 	 774.9958 	 1.080 	 95.169
0.4558026 	 9.2673733 	 782.7083 	 1.081 	 95.128
0.4586115 	 9.4319150 	 797.5980 	 1.082 	 95.120
0.4613810 	 9.5994061 	 804.4113 	 1.082 	 95.145
0.4641156 	 9.7631330 	 813.0801 	 1.083 	 95.122
0.4668118 	 9.9356183 	 825.3127 	 1.083 	 95.127
0.4694747 	 10.1058608 	 833.7908 	 1.084 	 95.126
0.4721031 	 10.2767611 	 846.2349 	 1.084 	 95.096
0.4746967 	 10.4520035 	 855.3597 	 1.084 	 95.096
0.4772573 	 10.6243985 	 860.9415 	 1.084 	 95.104
0.4797865 	 10.8014163 	 877.1082 	 1.085 	 95.111
0.4822818 	 10.9746601 	 887.9288 	 1.085 	 95.063
0.4847460 	 11.1553326 	 894.7629 	 1.085 	 95.079
0.4871803 	 11.3380225 	 913.7246 	 1.085 	 95.094
0.4895832 	 11.5189758 	 920.5174 	 1.086 	 95.080
0.4919579 	 11.7026510 	 926.5746 	 1.086 	 95.067
0.4943012 	 11.8848152 	 934.7065 	 1.086 	 95.059
0.4966172 	 12.0680276 	 943.7147 	 1.086 	 95.048
0.4989046 	 12.2545530 	 962.5500 	 1.086 	 95.048
0.5011642 	 12.4441175 	 977.4535 	 1.086 	 95.048
0.5033969 	 12.6354032 	 994.0639 	 1.085 	 95.035
0.5056017 	 12.8254988 	 1002.6458 	 1.085 	 95.026
0.5077807 	 13.0152245 	 1014.9291 	 1.085 	 95.041
0.5099346 	 13.2081476 	 1025.8224 	 1.086 	 95.024
0.5120640 	 13.4021324 	 1032.4739 	 1.086 	 95.021
0.5141698 	 13.6001175 	 1048.6002 	 1.087 	 95.034
0.5162513 	 13.7978107 	 1061.4864 	 1.086 	 95.003
0.5183094 	 13.9915024 	 1080.5392 	 1.087 	 94.989
0.5203457 	 14.1975718 	 1096.4458 	 1.087 	 95.007
0.5223573 	 14.3996101 	 1103.6350 	 1.087 	 94.994
0.5243446 	 14.6005699 	 1114.7679 	 1.087 	 94.956
0.5263127 	 14.8095110 	 1130.0777 	 1.088 	 95.005
0.5282574 	 15.0112639 	 1142.3597 	 1.087 	 94.951
0.5301819 	 15.2170572 	 1155.5096 	 1.087 	 94.955
0.5320838 	 15.4290271 	 1176.6415 	 1.087 	 94.947
0.5339634 	 15.6384323 	 1180.9170 	 1.086 	 94.942
0.5358229 	 15.8527912 	 1202.5905 	 1.085 	 94.972
0.5376626 	 16.0653241 	 1215.1360 	 1.085 	 94.945
0.5394827 	 16.2846949 	 1234.4619 	 1.085 	 94.964
0.5412826 	 16.5003236 	 1247.7811 	 1.085 	 94.950
0.5430636 	 16.7175950 	 1256.9112 	 1.085 	 94.955
0.5448256 	 16.9415365 	 1266.1310 	 1.085 	 94.968
0.5465699 	 17.1561995 	 1294.4453 	 1.084 	 94.923
0.5482957 	 17.3812466 	 1311.7127 	 1.084 	 94.909
0.5500038 	 17.6038322 	 1331.5905 	 1.085 	 94.924
0.5516941 	 17.8330084 	 1369.4491 	 1.085 	 94.910
0.5533645 	 18.0638436 	 1405.8758 	 1.085 	 94.913
0.5550198 	 18.2869470 	 1440.2320 	 1.085 	 94.883
0.5566569 	 18.5224358 	 1499.5575 	 1.085 	 94.869
0.5582775 	 18.7609320 	 1552.2378 	 1.085 	 94.909
0.5598822 	 18.9923629 	 1628.5010 	 1.085 	 94.872
0.5614705 	 19.2299683 	 1728.0123 	 1.085 	 94.854
0.5630413 	 19.4745519 	 1866.4980 	 1.086 	 94.882
0.5645963 	 19.7109287 	 2030.7974 	 1.086 	 94.855
0.5661364 	 19.9639739 	 2274.1045 	 1.086 	 94.880
0.5676603 	 20.2093184 	 2569.5721 	 1.086 	 94.822
0.5691672 	 20.4685011 	 2960.3394 	 1.087 	 94.868
0.5706598 	 20.7283292 	 3439.6177 	 1.088 	 94.830
0.5721362 	 20.9970624 	 4080.7117 	 1.089 	 94.841
0.5735958 	 21.2719395 	 4816.7149 	 1.090 	 94.848
0.5750395 	 21.5369670 	 5877.8099 	 1.091 	 94.785
0.5764688 	 21.8294999 	 7030.6811 	 1.092 	 94.797
0.5778806 	 22.1281558 	 8289.4421 	 1.092 	 94.824
0.5792752 	 22.4322042 	 9981.8862 	 1.094 	 94.802
0.5806549 	 22.7330149 	 11751.6089 	 1.095 	 94.775
0.5820168 	 23.0589717 	 13807.1400 	 1.095 	 94.788
0.5833614 	 23.3878992 	 16120.5509 	 1.096 	 94.753
0.5846904 	 23.7171205 	 18531.3144 	 1.097 	 94.726
0.5860013 	 24.0697673 	 21003.6780 	 1.098 	 94.767
0.5872946 	 24.4336537 	 23736.9840 	 1.099 	 94.757
0.5885721 	 24.8072592 	 26323.2586 	 1.100 	 94.754
0.5898312 	 25.1870932 	 28879.4504 	 1.100 	 94.739
0.5910723 	 25.5899664 	 31614.1256 	 1.100 	 94.732
0.5922969 	 25.9941619 	 34633.6625 	 1.102 	 94.736
0.5935035 	 26.3963803 	 37430.3421 	 1.102 	 94.697
0.5946931 	 26.8278928 	 40716.1433 	 1.103 	 94.694
0.5958660 	 27.2731312 	 43512.3017 	 1.104 	 94.697
0.5970206 	 27.7185314 	 45912.5692 	 1.104 	 94.699
0.5981590 	 28.1712603 	 48564.5114 	 1.104 	 94.680
0.5992792 	 28.6318361 	 51243.0874 	 1.104 	 94.658
0.6003830 	 29.1126871 	 53284.2311 	 1.104 	 94.672
0.6014689 	 29.6033477 	 55477.6873 	 1.104 	 94.663
0.6025393 	 30.0975422 	 58461.2913 	 1.105 	 94.706
0.6035929 	 30.6021936 	 60369.8315 	 1.103 	 94.679
0.6046307 	 31.1085849 	 63120.2982 	 1.103 	 94.658
0.6056529 	 31.6186449 	 66713.5176 	 1.101 	 94.645
0.6066588 	 32.1547976 	 70815.4882 	 1.099 	 94.636
0.6076503 	 32.6907318 	 76629.0874 	 1.097 	 94.662
0.6086259 	 33.2359413 	 83815.5296 	 1.095 	 94.668
0.6095866 	 33.7901035 	 91876.3857 	 1.093 	 94.627
0.6105325 	 34.3577973 	 102992.5770 	 1.091 	 94.667
0.6114635 	 34.9464789 	 114599.8319 	 1.089 	 94.615
0.6123806 	 35.5479978 	 128525.2793 	 1.087 	 94.664
0.6132821 	 36.1566473 	 141845.1755 	 1.086 	 94.623
0.6141694 	 36.7974620 	 157838.3711 	 1.084 	 94.633
0.6150430 	 37.4619669 	 174260.3037 	 1.083 	 94.668
0.6159017 	 38.1125793 	 189907.9673 	 1.082 	 94.619
0.6167459 	 38.8052261 	 204579.4816 	 1.081 	 94.594
0.6175759 	 39.5267565 	 219700.6856 	 1.081 	 94.605
0.6183911 	 40.2516275 	 232195.9579 	 1.082 	 94.565
0.6191919 	 41.0015621 	 242609.9764 	 1.081 	 94.553
0.6199790 	 41.7864308 	 252057.7385 	 1.082 	 94.558
0.6207516 	 42.5736993 	 258167.0888 	 1.083 	 94.570
0.6215101 	 43.3835311 	 265325.3958 	 1.084 	 94.535
0.6222550 	 44.2160397 	 271268.8830 	 1.085 	 94.553
0.6229871 	 45.0582005 	 273725.1409 	 1.086 	 94.552
0.6237056 	 45.9359758 	 277531.9715 	 1.087 	 94.576
0.6244117 	 46.8066318 	 279640.2899 	 1.089 	 94.539
0.6251047 	 47.6874132 	 281438.2088 	 1.090 	 94.584
0.6257852 	 48.5919641 	 279898.0790 	 1.091 	 94.581
0.6264538 	 49.4899814 	 276174.4755 	 1.093 	 94.618
0.6271111 	 50.3724686 	 270390.4572 	 1.095 	 94.586
0.6277571 	 51.2711081 	 263206.1362 	 1.097 	 94.623
0.6283926 	 52.1525508 	 256127.2471 	 1.100 	 94.628
0.6290178 	 53.0083469 	 252070.8025 	 1.101 	 94.670
0.6296329 	 53.8802436 	 251904.2255 	 1.105 	 94.737
