N=100 	 R=1000000 	 s=1 	 Save [density, Z, rho_t, like/unlike, events per sweep]
0.0001340 	 1.0005101 	 1.1026 	 1.004 	 10.124
0.0132445 	 1.1626585 	 12.2303 	 0.950 	 46.797
0.0260788 	 1.1528689 	 22.9244 	 1.004 	 78.943
0.0385016 	 1.1918718 	 33.5096 	 1.013 	 88.251
0.0505176 	 1.2395462 	 43.7393 	 1.016 	 92.032
0.0621684 	 1.2921486 	 54.2273 	 1.017 	 93.789
0.0734658 	 1.3481880 	 64.8903 	 1.019 	 94.772
0.0844256 	 1.4075423 	 75.2460 	 1.020 	 95.223
0.0950692 	 1.4696462 	 85.0477 	 1.021 	 95.530
0.1054138 	 1.5338146 	 95.2596 	 1.022 	 95.694
0.1154524 	 1.6001137 	 105.5622 	 1.023 	 95.778
0.1252220 	 1.6686417 	 115.4397 	 1.024 	 95.810
0.1347227 	 1.7388000 	 126.2236 	 1.026 	 95.807
0.1439557 	 1.8102016 	 137.2594 	 1.027 	 95.878
0.1529449 	 1.8840985 	 146.6681 	 1.028 	 95.854
0.1617035 	 1.9598268 	 157.4266 	 1.030 	 95.848
0.1702321 	 2.0370328 	 167.7154 	 1.031 	 95.806
0.1785454 	 2.1156928 	 178.1815 	 1.032 	 95.756
0.1866496 	 2.1962500 	 189.2642 	 1.034 	 95.758
0.1945495 	 2.2783335 	 199.0077 	 1.035 	 95.764
0.2022632 	 2.3624090 	 209.5573 	 1.036 	 95.767
0.2097835 	 2.4472296 	 220.1992 	 1.037 	 95.725
0.2171308 	 2.5339521 	 229.9986 	 1.039 	 95.680
0.2243009 	 2.6222652 	 241.4797 	 1.040 	 95.666
0.2313132 	 2.7125728 	 250.5636 	 1.041 	 95.664
0.2381651 	 2.8041099 	 260.3225 	 1.041 	 95.658
0.2448635 	 2.8976759 	 269.7693 	 1.043 	 95.635
0.2514012 	 2.9919069 	 282.8395 	 1.044 	 95.617
0.2578034 	 3.0880070 	 291.9603 	 1.045 	 95.628
0.2640669 	 3.1862156 	 299.3247 	 1.047 	 95.616
0.2701975 	 3.2850454 	 310.9006 	 1.047 	 95.561
0.2761953 	 3.3863143 	 322.6298 	 1.049 	 95.579
0.2820705 	 3.4888847 	 333.4414 	 1.050 	 95.549
0.2878225 	 3.5927211 	 340.2345 	 1.051 	 95.541
0.2934587 	 3.6975633 	 350.5427 	 1.052 	 95.513
0.2989849 	 3.8053595 	 360.7269 	 1.053 	 95.552
0.3043963 	 3.9137407 	 371.1966 	 1.054 	 95.522
0.3097030 	 4.0226720 	 383.3188 	 1.055 	 95.510
0.3149035 	 4.1335847 	 391.1006 	 1.056 	 95.479
0.3200053 	 4.2466421 	 398.5299 	 1.056 	 95.451
0.3250116 	 4.3617294 	 407.7691 	 1.057 	 95.446
0.3299243 	 4.4770265 	 417.1430 	 1.059 	 95.456
0.3347500 	 4.5943263 	 428.4010 	 1.059 	 95.418
0.3394807 	 4.7150012 	 439.8789 	 1.060 	 95.455
0.3441243 	 4.8334610 	 450.9943 	 1.062 	 95.409
0.3486860 	 4.9546906 	 459.8967 	 1.062 	 95.393
0.3531698 	 5.0799063 	 470.9159 	 1.063 	 95.410
0.3575716 	 5.2041129 	 482.7667 	 1.064 	 95.371
0.3618950 	 5.3291299 	 491.2302 	 1.065 	 95.363
0.3661443 	 5.4582993 	 500.7146 	 1.065 	 95.359
0.3703236 	 5.5862517 	 514.1264 	 1.067 	 95.336
0.3744278 	 5.7173029 	 526.0220 	 1.067 	 95.345
0.3784685 	 5.8477641 	 534.5712 	 1.068 	 95.307
0.3824411 	 5.9804820 	 546.8469 	 1.070 	 95.307
0.3863462 	 6.1162008 	 559.4802 	 1.070 	 95.284
0.3901888 	 6.2513571 	 571.5002 	 1.070 	 95.281
0.3939660 	 6.3895233 	 581.7971 	 1.071 	 95.265
0.3976866 	 6.5287456 	 592.6656 	 1.072 	 95.302
0.4013466 	 6.6676355 	 600.9546 	 1.072 	 95.248
0.4049477 	 6.8107055 	 613.9193 	 1.073 	 95.251
0.4084958 	 6.9535358 	 629.2215 	 1.074 	 95.254
0.4119890 	 7.0992668 	 638.3073 	 1.074 	 95.252
0.4154265 	 7.2456270 	 648.3166 	 1.075 	 95.249
0.4188124 	 7.3929749 	 660.7440 	 1.076 	 95.275
0.4221473 	 7.5415464 	 664.8703 	 1.076 	 95.253
0.4254325 	 7.6901610 	 679.0508 	 1.077 	 95.221
0.4286685 	 7.8428933 	 690.4736 	 1.077 	 95.212
0.4318594 	 7.9952338 	 701.0434 	 1.078 	 95.223
0.4350033 	 8.1508421 	 709.6459 	 1.079 	 95.207
0.4381009 	 8.3041384 	 720.5242 	 1.080 	 95.184
0.4411554 	 8.4616597 	 734.2133 	 1.080 	 95.190
0.4441664 	 8.6203985 	 742.8609 	 1.080 	 95.179
0.4471356 	 8.7797256 	 751.7034 	 1.081 	 95.163
0.4500633 	 8.9404224 	 759.6620 	 1.081 	 95.163
0.4529503 	 9.1020552 	 774.1256 	 1.081 	 95.135
0.4557975 	 9.2649362 	 783.7078 	 1.082 	 95.134
0.4586056 	 9.4318913 	 793.4807 	 1.081 	 95.149
0.4613800 	 9.5990099 	 806.1248 	 1.083 	 95.129
0.4641141 	 9.7681161 	 818.7497 	 1.083 	 95.105
0.4668121 	 9.9357459 	 827.3233 	 1.083 	 95.126
0.4694727 	 10.1043085 	 836.4090 	 1.084 	 95.122
0.4721013 	 10.2798277 	 849.0901 	 1.084 	 95.129
0.4746939 	 10.4494881 	 861.2989 	 1.084 	 95.084
0.4772558 	 10.6266750 	 875.3133 	 1.084 	 95.117
0.4797825 	 10.8014816 	 881.2839 	 1.085 	 95.095
0.4822777 	 10.9773800 	 893.9037 	 1.085 	 95.081
0.4847402 	 11.1549253 	 896.2529 	 1.085 	 95.107
0.4871735 	 11.3318814 	 910.4548 	 1.085 	 95.068
0.4895745 	 11.5187019 	 918.0366 	 1.086 	 95.091
0.4919468 	 11.7000525 	 922.9170 	 1.086 	 95.067
0.4942925 	 11.8837747 	 930.4169 	 1.086 	 95.081
0.4966080 	 12.0663389 	 940.6013 	 1.086 	 95.049
0.4988946 	 12.2565691 	 955.5603 	 1.085 	 95.064
0.5011552 	 12.4459424 	 971.8863 	 1.086 	 95.063
0.5033885 	 12.6312401 	 979.3575 	 1.086 	 95.038
0.5055941 	 12.8239312 	 985.9516 	 1.087 	 95.043
0.5077754 	 13.0183298 	 993.9845 	 1.087 	 95.046
0.5099307 	 13.2090169 	 1000.3560 	 1.087 	 95.043
0.5120594 	 13.4021572 	 1009.8238 	 1.087 	 95.003
0.5141655 	 13.5976204 	 1027.1518 	 1.087 	 95.016
0.5162472 	 13.7917196 	 1039.0730 	 1.087 	 95.002
0.5183036 	 13.9990064 	 1045.7237 	 1.088 	 95.015
0.5203381 	 14.1972929 	 1059.3960 	 1.088 	 95.002
0.5223485 	 14.4008439 	 1068.0754 	 1.088 	 94.970
0.5243356 	 14.5999442 	 1081.6148 	 1.087 	 94.993
0.5263024 	 14.8057667 	 1092.5045 	 1.087 	 94.969
0.5282477 	 15.0168146 	 1114.1182 	 1.087 	 95.012
0.5301703 	 15.2217326 	 1124.2602 	 1.088 	 94.975
0.5320708 	 15.4337286 	 1131.2908 	 1.088 	 94.990
0.5339498 	 15.6425457 	 1141.1989 	 1.087 	 94.953
0.5358094 	 15.8535130 	 1153.3104 	 1.086 	 94.962
0.5376507 	 16.0702529 	 1166.2188 	 1.087 	 94.956
0.5394722 	 16.2889363 	 1181.5867 	 1.087 	 94.979
0.5412732 	 16.5009118 	 1193.0020 	 1.087 	 94.959
0.5430556 	 16.7130211 	 1197.7649 	 1.087 	 94.931
0.5448192 	 16.9352822 	 1214.2235 	 1.087 	 94.925
0.5465645 	 17.1603573 	 1250.4713 	 1.087 	 94.955
0.5482910 	 17.3745083 	 1268.9628 	 1.086 	 94.943
0.5500009 	 17.6013390 	 1303.3808 	 1.087 	 94.911
0.5516925 	 17.8207878 	 1339.2897 	 1.086 	 94.911
0.5533657 	 18.0540475 	 1382.9206 	 1.087 	 94.914
0.5550219 	 18.2800252 	 1440.8987 	 1.086 	 94.927
0.5566611 	 18.5040496 	 1538.7325 	 1.086 	 94.920
0.5582843 	 18.7342577 	 1663.9611 	 1.086 	 94.883
0.5598908 	 18.9673311 	 1821.0491 	 1.085 	 94.891
0.5614801 	 19.1996547 	 2023.0381 	 1.084 	 94.877
0.5630520 	 19.4484212 	 2306.8253 	 1.083 	 94.913
0.5646096 	 19.6801581 	 2672.0275 	 1.083 	 94.845
0.5661523 	 19.9259114 	 3171.7332 	 1.082 	 94.894
0.5676783 	 20.1764146 	 3775.2402 	 1.081 	 94.878
0.5691896 	 20.4227060 	 4549.4207 	 1.080 	 94.874
0.5706846 	 20.6757132 	 5494.5812 	 1.079 	 94.844
0.5721639 	 20.9390303 	 6652.4673 	 1.077 	 94.870
0.5736280 	 21.2110089 	 7888.2245 	 1.077 	 94.827
0.5750753 	 21.4840370 	 9275.1048 	 1.075 	 94.848
0.5765072 	 21.7687767 	 10749.7834 	 1.075 	 94.805
0.5779234 	 22.0558090 	 12431.1398 	 1.073 	 94.797
0.5793231 	 22.3588821 	 13981.9764 	 1.073 	 94.821
0.5807064 	 22.6704373 	 15779.3177 	 1.072 	 94.828
0.5820736 	 22.9885170 	 17377.7383 	 1.071 	 94.804
0.5834232 	 23.3110647 	 19146.6296 	 1.070 	 94.789
0.5847560 	 23.6407929 	 20885.2748 	 1.069 	 94.818
0.5860709 	 23.9902658 	 22534.8377 	 1.068 	 94.807
0.5873704 	 24.3272997 	 24480.9262 	 1.067 	 94.783
0.5886543 	 24.6799587 	 26818.7182 	 1.066 	 94.788
0.5899212 	 25.0412445 	 30071.6413 	 1.065 	 94.792
0.5911719 	 25.4015739 	 34723.0549 	 1.062 	 94.823
0.5924060 	 25.7720739 	 40179.9612 	 1.060 	 94.862
0.5936250 	 26.1449874 	 47914.5893 	 1.059 	 94.844
0.5948287 	 26.5097344 	 57972.0182 	 1.055 	 94.843
0.5960182 	 26.8938529 	 69715.7827 	 1.053 	 94.831
0.5971917 	 27.2796410 	 83961.6623 	 1.051 	 94.888
0.5983499 	 27.6732809 	 99406.9769 	 1.050 	 94.873
0.5994921 	 28.0874293 	 115239.2773 	 1.047 	 94.909
0.6006187 	 28.5098735 	 131238.7720 	 1.046 	 94.858
0.6017309 	 28.9622553 	 146089.7372 	 1.045 	 94.899
0.6028276 	 29.4238008 	 160276.4045 	 1.045 	 94.888
0.6039070 	 29.8981677 	 171598.9536 	 1.045 	 94.865
0.6049709 	 30.4002662 	 181118.0956 	 1.047 	 94.856
0.6060180 	 30.9191431 	 188816.1397 	 1.050 	 94.873
0.6070482 	 31.4516501 	 195677.4178 	 1.053 	 94.843
0.6080625 	 32.0078603 	 201652.6387 	 1.058 	 94.827
0.6090600 	 32.5615584 	 207940.2374 	 1.063 	 94.766
0.6100413 	 33.1348978 	 214303.1478 	 1.068 	 94.730
0.6110077 	 33.7341628 	 221597.6323 	 1.075 	 94.688
0.6119571 	 34.3442218 	 230780.3512 	 1.081 	 94.688
0.6128904 	 34.9652482 	 241768.2588 	 1.090 	 94.630
0.6138082 	 35.6067950 	 255816.5962 	 1.098 	 94.650
0.6147104 	 36.2489584 	 272059.4297 	 1.106 	 94.561
0.6155976 	 36.8947725 	 295133.5881 	 1.116 	 94.487
0.6164699 	 37.5670784 	 322236.9016 	 1.127 	 94.470
0.6173279 	 38.2416702 	 354224.4777 	 1.137 	 94.400
0.6181709 	 38.9167007 	 390722.2532 	 1.147 	 94.334
0.6190000 	 39.6181698 	 430212.0798 	 1.158 	 94.238
0.6198153 	 40.3559588 	 473450.7008 	 1.169 	 94.256
0.6206167 	 41.0775860 	 518727.2952 	 1.178 	 94.200
0.6214035 	 41.8340822 	 563606.5648 	 1.188 	 94.127
0.6221777 	 42.5961701 	 609022.5012 	 1.196 	 94.053
0.6229376 	 43.3695801 	 654486.6660 	 1.205 	 94.031
0.6236856 	 44.1894317 	 698026.8728 	 1.213 	 94.001
0.6244200 	 45.0182908 	 740507.8125 	 1.220 	 93.968
0.6251413 	 45.8696075 	 778608.0923 	 1.227 	 93.914
0.6258497 	 46.7308973 	 810737.7975 	 1.233 	 93.873
0.6265451 	 47.6243315 	 839975.9568 	 1.237 	 93.825
0.6272287 	 48.5420437 	 862964.2759 	 1.241 	 93.827
0.6278991 	 49.4881687 	 885774.2779 	 1.246 	 93.808
0.6285575 	 50.4468439 	 906053.8254 	 1.250 	 93.778
0.6292038 	 51.3978358 	 923323.5338 	 1.252 	 93.749
0.6298386 	 52.4030952 	 935403.6707 	 1.254 	 93.708
