N=100 	 R=1000000 	 s=1 	 Save [density, Z, rho_t, like/unlike, events per sweep]
0.0001344 	 1.0005109 	 1.1026 	 1.014 	 10.124
0.0132525 	 1.1626874 	 12.2642 	 0.950 	 46.775
0.0260816 	 1.1528738 	 22.8650 	 1.004 	 78.960
0.0385045 	 1.1918465 	 33.4412 	 1.013 	 88.222
0.0505236 	 1.2395635 	 43.9547 	 1.017 	 92.008
0.0621724 	 1.2921955 	 54.6296 	 1.017 	 93.781
0.0734734 	 1.3482471 	 64.5530 	 1.019 	 94.787
0.0844329 	 1.4076491 	 74.6614 	 1.020 	 95.264
0.0950730 	 1.4695657 	 85.1318 	 1.022 	 95.523
0.1054082 	 1.5336735 	 95.6485 	 1.022 	 95.649
0.1154523 	 1.6000118 	 106.0716 	 1.024 	 95.731
0.1252067 	 1.6684640 	 116.8125 	 1.025 	 95.793
0.1347048 	 1.7387454 	 125.9336 	 1.026 	 95.820
0.1439431 	 1.8102428 	 136.9409 	 1.027 	 95.904
0.1529303 	 1.8839717 	 147.4442 	 1.028 	 95.839
0.1616893 	 1.9597673 	 158.1092 	 1.030 	 95.833
0.1702248 	 2.0368743 	 168.9128 	 1.031 	 95.817
0.1785396 	 2.1155189 	 177.3495 	 1.032 	 95.782
0.1866396 	 2.1961059 	 187.0829 	 1.034 	 95.763
0.1945482 	 2.2784145 	 197.0760 	 1.035 	 95.760
0.2022598 	 2.3619667 	 205.9936 	 1.036 	 95.755
0.2097841 	 2.4474701 	 215.1297 	 1.037 	 95.733
0.2171349 	 2.5344233 	 224.4249 	 1.039 	 95.730
0.2243044 	 2.6227735 	 234.9203 	 1.040 	 95.704
0.2313132 	 2.7126169 	 245.1616 	 1.041 	 95.685
0.2381625 	 2.8043207 	 256.5907 	 1.042 	 95.663
0.2448542 	 2.8971795 	 266.1201 	 1.043 	 95.633
0.2514007 	 2.9920311 	 276.9562 	 1.044 	 95.618
0.2578001 	 3.0880072 	 286.4745 	 1.045 	 95.611
0.2640622 	 3.1857568 	 296.2759 	 1.046 	 95.584
0.2701904 	 3.2852323 	 308.6755 	 1.047 	 95.572
0.2761915 	 3.3860153 	 319.7596 	 1.048 	 95.562
0.2820613 	 3.4880033 	 331.2769 	 1.049 	 95.539
0.2878139 	 3.5918236 	 339.8414 	 1.051 	 95.519
0.2934522 	 3.6974567 	 349.2360 	 1.052 	 95.535
0.2989770 	 3.8040873 	 360.1522 	 1.053 	 95.521
0.3043908 	 3.9130994 	 368.5798 	 1.054 	 95.528
0.3096974 	 4.0226825 	 380.6221 	 1.055 	 95.485
0.3149005 	 4.1345674 	 390.6245 	 1.056 	 95.492
0.3200010 	 4.2477280 	 398.9761 	 1.057 	 95.479
0.3250051 	 4.3611879 	 410.3306 	 1.058 	 95.454
0.3299206 	 4.4766958 	 422.5944 	 1.058 	 95.423
0.3347423 	 4.5954016 	 429.0491 	 1.059 	 95.437
0.3394732 	 4.7123431 	 440.1656 	 1.060 	 95.400
0.3441184 	 4.8333197 	 450.1314 	 1.062 	 95.400
0.3486819 	 4.9557346 	 463.6728 	 1.062 	 95.408
0.3531634 	 5.0790281 	 473.4957 	 1.064 	 95.397
0.3575649 	 5.2034975 	 488.0303 	 1.064 	 95.388
0.3618908 	 5.3298501 	 496.4382 	 1.065 	 95.375
0.3661412 	 5.4561803 	 506.8179 	 1.066 	 95.349
0.3703180 	 5.5853514 	 517.6629 	 1.066 	 95.344
0.3744254 	 5.7160887 	 525.9924 	 1.068 	 95.348
0.3784623 	 5.8484297 	 540.4004 	 1.068 	 95.324
0.3824334 	 5.9818992 	 551.6457 	 1.069 	 95.304
0.3863367 	 6.1171906 	 565.9622 	 1.069 	 95.321
0.3901800 	 6.2524686 	 575.7222 	 1.070 	 95.320
0.3939567 	 6.3900340 	 587.0191 	 1.071 	 95.297
0.3976756 	 6.5275607 	 591.5136 	 1.071 	 95.270
0.4013346 	 6.6700479 	 603.2664 	 1.072 	 95.298
0.4049374 	 6.8111900 	 609.6297 	 1.073 	 95.272
0.4084855 	 6.9542032 	 617.0268 	 1.074 	 95.250
0.4119788 	 7.0984252 	 629.7051 	 1.075 	 95.259
0.4154169 	 7.2458845 	 638.8472 	 1.074 	 95.261
0.4188037 	 7.3917751 	 659.5080 	 1.075 	 95.222
0.4221411 	 7.5411459 	 663.0972 	 1.077 	 95.243
0.4254254 	 7.6901616 	 672.2039 	 1.077 	 95.205
0.4286618 	 7.8425804 	 682.9439 	 1.077 	 95.211
0.4318513 	 7.9941638 	 695.7046 	 1.078 	 95.202
0.4349960 	 8.1489926 	 706.5903 	 1.078 	 95.221
0.4380946 	 8.3047523 	 714.0784 	 1.079 	 95.163
0.4411472 	 8.4602956 	 726.5015 	 1.079 	 95.172
0.4441594 	 8.6204835 	 737.4799 	 1.079 	 95.177
0.4471304 	 8.7767173 	 746.9110 	 1.080 	 95.151
0.4500597 	 8.9417516 	 756.9132 	 1.081 	 95.185
0.4529464 	 9.1012998 	 769.4340 	 1.081 	 95.144
0.4557955 	 9.2666235 	 781.7057 	 1.081 	 95.144
0.4586052 	 9.4307541 	 792.7979 	 1.082 	 95.132
0.4613751 	 9.5970826 	 797.6427 	 1.082 	 95.130
0.4641123 	 9.7663655 	 812.3003 	 1.082 	 95.142
0.4668124 	 9.9364625 	 828.7486 	 1.082 	 95.116
0.4694742 	 10.1066302 	 838.9599 	 1.083 	 95.139
0.4721000 	 10.2757771 	 850.0907 	 1.083 	 95.126
0.4746940 	 10.4502671 	 860.0552 	 1.083 	 95.136
0.4772564 	 10.6237131 	 873.0624 	 1.084 	 95.092
0.4797837 	 10.7981569 	 884.3179 	 1.084 	 95.082
0.4822790 	 10.9779139 	 903.3710 	 1.084 	 95.075
0.4847442 	 11.1580185 	 923.2599 	 1.085 	 95.094
0.4871785 	 11.3376842 	 925.0355 	 1.085 	 95.073
0.4895801 	 11.5167996 	 938.8431 	 1.086 	 95.067
0.4919510 	 11.7016909 	 940.7226 	 1.086 	 95.070
0.4942952 	 11.8821463 	 944.4062 	 1.086 	 95.039
0.4966117 	 12.0725570 	 944.2077 	 1.086 	 95.070
0.4988976 	 12.2588650 	 956.8485 	 1.086 	 95.061
0.5011563 	 12.4432098 	 969.7018 	 1.086 	 95.058
0.5033899 	 12.6319188 	 972.2317 	 1.086 	 95.029
0.5055952 	 12.8245074 	 982.4994 	 1.087 	 95.042
0.5077764 	 13.0185394 	 991.3090 	 1.087 	 95.046
0.5099303 	 13.2110447 	 1001.4484 	 1.087 	 95.052
0.5120587 	 13.4090030 	 1015.6989 	 1.087 	 95.047
0.5141637 	 13.6015404 	 1028.0488 	 1.088 	 94.997
0.5162447 	 13.7975976 	 1030.0761 	 1.089 	 94.998
0.5183015 	 13.9981593 	 1035.2263 	 1.088 	 94.971
0.5203356 	 14.1931579 	 1044.4683 	 1.089 	 95.013
0.5223466 	 14.3943292 	 1061.1344 	 1.088 	 94.958
0.5243369 	 14.6014436 	 1069.3285 	 1.088 	 95.006
0.5263023 	 14.8057450 	 1075.4253 	 1.087 	 94.982
0.5282475 	 15.0156157 	 1086.1809 	 1.088 	 94.991
0.5301703 	 15.2227355 	 1099.1735 	 1.088 	 94.963
0.5320704 	 15.4347774 	 1110.2881 	 1.088 	 94.993
0.5339505 	 15.6441156 	 1130.5051 	 1.089 	 94.954
0.5358117 	 15.8544140 	 1143.3047 	 1.088 	 94.957
0.5376518 	 16.0691141 	 1158.7885 	 1.087 	 94.952
0.5394720 	 16.2840511 	 1174.0502 	 1.087 	 94.947
0.5412728 	 16.5029902 	 1191.7763 	 1.087 	 94.947
0.5430526 	 16.7192330 	 1209.8122 	 1.086 	 94.928
0.5448150 	 16.9351653 	 1222.9199 	 1.086 	 94.930
0.5465583 	 17.1608446 	 1245.5905 	 1.086 	 94.957
0.5482836 	 17.3805568 	 1275.1535 	 1.085 	 94.918
0.5499915 	 17.6017552 	 1309.1347 	 1.085 	 94.926
0.5516817 	 17.8290941 	 1345.4430 	 1.085 	 94.941
0.5533547 	 18.0508028 	 1389.1484 	 1.086 	 94.919
0.5550100 	 18.2768429 	 1455.3074 	 1.085 	 94.903
0.5566494 	 18.5084788 	 1544.1079 	 1.085 	 94.907
0.5582730 	 18.7365213 	 1650.4247 	 1.085 	 94.911
0.5598793 	 18.9735014 	 1825.0804 	 1.084 	 94.910
0.5614688 	 19.2000183 	 2076.8530 	 1.084 	 94.885
0.5630432 	 19.4275461 	 2436.8194 	 1.082 	 94.880
0.5646020 	 19.6682164 	 2970.4080 	 1.082 	 94.860
0.5661450 	 19.8990446 	 3726.9684 	 1.081 	 94.858
0.5676741 	 20.1416462 	 4928.2119 	 1.080 	 94.876
0.5691876 	 20.3838473 	 6713.4024 	 1.080 	 94.871
0.5706856 	 20.6266551 	 9306.9717 	 1.080 	 94.880
0.5721703 	 20.8726322 	 12945.7573 	 1.079 	 94.872
0.5736401 	 21.1199275 	 17821.8789 	 1.078 	 94.854
0.5750945 	 21.3773308 	 24631.6455 	 1.077 	 94.895
0.5765344 	 21.6364429 	 33333.9649 	 1.077 	 94.845
0.5779600 	 21.9065238 	 44743.7821 	 1.076 	 94.810
0.5793719 	 22.1926243 	 58523.6258 	 1.076 	 94.849
0.5807659 	 22.4785407 	 76554.2188 	 1.076 	 94.819
0.5821443 	 22.7804726 	 97589.5099 	 1.076 	 94.837
0.5835067 	 23.0936576 	 121766.4751 	 1.076 	 94.817
0.5848533 	 23.4218573 	 146934.7060 	 1.076 	 94.777
0.5861821 	 23.7577799 	 175354.9240 	 1.075 	 94.777
0.5874942 	 24.1100729 	 206009.7964 	 1.076 	 94.760
0.5887905 	 24.4783909 	 235167.6313 	 1.077 	 94.777
0.5900686 	 24.8413275 	 263202.2798 	 1.076 	 94.720
0.5913298 	 25.2290811 	 295807.5395 	 1.077 	 94.691
0.5925724 	 25.6281590 	 325856.9151 	 1.077 	 94.699
0.5937974 	 26.0421421 	 348772.4344 	 1.078 	 94.676
0.5950051 	 26.4647654 	 372142.7490 	 1.078 	 94.656
0.5961948 	 26.9002383 	 392188.6756 	 1.078 	 94.615
0.5973666 	 27.3523697 	 411299.5319 	 1.078 	 94.622
0.5985211 	 27.8111941 	 426002.5334 	 1.078 	 94.568
0.5996577 	 28.2922727 	 435910.5099 	 1.079 	 94.552
0.6007749 	 28.7765732 	 446461.8935 	 1.080 	 94.519
0.6018756 	 29.2804934 	 452914.2717 	 1.081 	 94.535
0.6029588 	 29.8031683 	 455385.5203 	 1.083 	 94.505
0.6040241 	 30.3327277 	 455393.9398 	 1.083 	 94.482
0.6050721 	 30.8611713 	 452673.3199 	 1.085 	 94.450
0.6061028 	 31.4009214 	 450591.6981 	 1.086 	 94.425
0.6071161 	 31.9713216 	 444895.5259 	 1.088 	 94.411
0.6081131 	 32.5438267 	 440648.4505 	 1.089 	 94.376
0.6090938 	 33.1335610 	 436604.0448 	 1.091 	 94.386
0.6100583 	 33.7368005 	 433531.1018 	 1.094 	 94.306
0.6110060 	 34.3457217 	 429366.1825 	 1.097 	 94.315
0.6119380 	 34.9743811 	 427490.6059 	 1.099 	 94.266
0.6128539 	 35.6033301 	 427283.3575 	 1.101 	 94.256
0.6137544 	 36.2629346 	 427829.7540 	 1.105 	 94.229
0.6146401 	 36.9347328 	 428232.2245 	 1.107 	 94.173
0.6155090 	 37.6182574 	 430917.0405 	 1.110 	 94.200
0.6163640 	 38.3188558 	 432275.9223 	 1.114 	 94.134
0.6172039 	 39.0229731 	 435722.8774 	 1.116 	 94.140
0.6180288 	 39.7487995 	 439462.2872 	 1.120 	 94.079
0.6188405 	 40.4881638 	 440440.3620 	 1.122 	 94.073
0.6196373 	 41.2310759 	 439654.7567 	 1.124 	 94.019
0.6204201 	 41.9951399 	 438025.6551 	 1.127 	 94.017
0.6211895 	 42.7863075 	 433280.1267 	 1.129 	 94.022
0.6219455 	 43.5676641 	 425039.8333 	 1.130 	 93.989
0.6226891 	 44.3567264 	 415118.8500 	 1.131 	 93.956
0.6234192 	 45.1597072 	 402350.5665 	 1.132 	 93.970
0.6241364 	 45.9844315 	 387344.4114 	 1.131 	 93.994
0.6248419 	 46.8133158 	 369527.2215 	 1.130 	 93.965
0.6255355 	 47.6421237 	 353975.0811 	 1.128 	 94.002
0.6262176 	 48.4872443 	 340435.1015 	 1.126 	 93.995
0.6268885 	 49.3268795 	 331599.9934 	 1.123 	 94.019
0.6275487 	 50.1879937 	 328724.8452 	 1.119 	 94.047
0.6281980 	 51.0553403 	 335132.7872 	 1.116 	 94.046
0.6288356 	 51.9475190 	 348066.3214 	 1.112 	 94.049
0.6294633 	 52.8719096 	 368888.9458 	 1.109 	 94.084
