N=100 	 R=1000000 	 s=1 	 Save [density, Z, rho_t, like/unlike, events per sweep]
0.0001353 	 1.0005175 	 1.1026 	 1.005 	 10.126
0.0132540 	 1.1626621 	 12.1879 	 0.951 	 46.787
0.0260922 	 1.1528736 	 22.8907 	 1.004 	 78.924
0.0385089 	 1.1918498 	 33.3168 	 1.013 	 88.220
0.0505228 	 1.2395559 	 44.0481 	 1.016 	 91.993
0.0621735 	 1.2921241 	 54.4711 	 1.018 	 93.776
0.0734796 	 1.3482714 	 65.2842 	 1.019 	 94.747
0.0844447 	 1.4078856 	 75.2421 	 1.020 	 95.276
0.0950808 	 1.4694347 	 85.9090 	 1.021 	 95.464
0.1054243 	 1.5339023 	 96.0488 	 1.022 	 95.681
0.1154708 	 1.6003315 	 106.7212 	 1.023 	 95.759
0.1252239 	 1.6685772 	 117.6226 	 1.025 	 95.784
0.1347175 	 1.7386721 	 127.9787 	 1.025 	 95.792
0.1439572 	 1.8103210 	 138.4675 	 1.027 	 95.880
0.1529518 	 1.8841249 	 149.6030 	 1.028 	 95.845
0.1617074 	 1.9600123 	 159.3918 	 1.030 	 95.824
0.1702454 	 2.0372271 	 169.9751 	 1.031 	 95.796
0.1785507 	 2.1156713 	 180.5222 	 1.032 	 95.780
0.1866598 	 2.1965140 	 191.5354 	 1.034 	 95.790
0.1945633 	 2.2784088 	 201.6631 	 1.035 	 95.753
0.2022733 	 2.3623094 	 211.5759 	 1.036 	 95.749
0.2098029 	 2.4476284 	 221.4363 	 1.038 	 95.723
0.2171490 	 2.5346157 	 231.4833 	 1.038 	 95.692
0.2243179 	 2.6231070 	 241.1949 	 1.040 	 95.704
0.2313221 	 2.7126747 	 249.9200 	 1.041 	 95.648
0.2381651 	 2.8044456 	 261.3516 	 1.042 	 95.629
0.2448615 	 2.8973880 	 272.1812 	 1.043 	 95.654
0.2514083 	 2.9922247 	 283.1733 	 1.044 	 95.642
0.2578083 	 3.0883409 	 292.9797 	 1.045 	 95.608
0.2640744 	 3.1858474 	 300.5306 	 1.046 	 95.584
0.2702005 	 3.2854485 	 311.3657 	 1.048 	 95.565
0.2761968 	 3.3860501 	 323.7703 	 1.049 	 95.561
0.2820737 	 3.4882568 	 335.0739 	 1.050 	 95.547
0.2878234 	 3.5927647 	 346.5717 	 1.051 	 95.568
0.2934657 	 3.6978400 	 356.4112 	 1.052 	 95.540
0.2989893 	 3.8048520 	 363.2626 	 1.053 	 95.510
0.3044034 	 3.9128870 	 376.1636 	 1.054 	 95.493
0.3097055 	 4.0240640 	 386.6837 	 1.055 	 95.517
0.3149120 	 4.1337306 	 393.6370 	 1.056 	 95.493
0.3200171 	 4.2479237 	 407.2861 	 1.057 	 95.486
0.3250242 	 4.3618977 	 416.8448 	 1.058 	 95.472
0.3299370 	 4.4782239 	 425.7710 	 1.058 	 95.453
0.3347626 	 4.5949552 	 437.3757 	 1.060 	 95.435
0.3394934 	 4.7143625 	 446.1920 	 1.061 	 95.422
0.3441370 	 4.8350011 	 459.3883 	 1.062 	 95.418
0.3486969 	 4.9553635 	 470.1497 	 1.062 	 95.384
0.3531752 	 5.0790361 	 476.7482 	 1.063 	 95.385
0.3575772 	 5.2026055 	 488.2577 	 1.064 	 95.374
0.3619039 	 5.3301094 	 500.6534 	 1.065 	 95.368
0.3661507 	 5.4578030 	 514.1132 	 1.066 	 95.361
0.3703284 	 5.5863363 	 527.0298 	 1.067 	 95.342
0.3744341 	 5.7168732 	 537.3041 	 1.067 	 95.323
0.3784721 	 5.8480765 	 551.4637 	 1.068 	 95.307
0.3824424 	 5.9820986 	 564.8283 	 1.069 	 95.329
0.3863475 	 6.1150322 	 574.1131 	 1.070 	 95.305
0.3901907 	 6.2527725 	 581.5903 	 1.071 	 95.309
0.3939703 	 6.3909717 	 590.2781 	 1.072 	 95.304
0.3976894 	 6.5285955 	 602.9089 	 1.072 	 95.257
0.4013499 	 6.6700721 	 617.7542 	 1.072 	 95.270
0.4049538 	 6.8097598 	 626.6548 	 1.073 	 95.235
0.4085006 	 6.9546337 	 635.8587 	 1.074 	 95.247
0.4119925 	 7.0986932 	 647.3767 	 1.075 	 95.240
0.4154332 	 7.2436210 	 657.0138 	 1.075 	 95.218
0.4188195 	 7.3918886 	 668.7120 	 1.075 	 95.228
0.4221527 	 7.5409081 	 682.0978 	 1.076 	 95.210
0.4254364 	 7.6919554 	 696.1310 	 1.076 	 95.195
0.4286739 	 7.8438612 	 706.0248 	 1.077 	 95.220
0.4318650 	 7.9955542 	 716.9775 	 1.077 	 95.219
0.4350087 	 8.1490421 	 725.2130 	 1.077 	 95.212
0.4381050 	 8.3064478 	 740.6744 	 1.079 	 95.201
0.4411582 	 8.4612576 	 753.1757 	 1.079 	 95.188
0.4441685 	 8.6213225 	 761.1930 	 1.080 	 95.192
0.4471367 	 8.7792461 	 771.1267 	 1.081 	 95.158
0.4500639 	 8.9401681 	 782.7208 	 1.081 	 95.153
0.4529510 	 9.1021874 	 791.9730 	 1.081 	 95.145
0.4557984 	 9.2661910 	 797.4189 	 1.082 	 95.145
0.4586080 	 9.4317980 	 806.0899 	 1.082 	 95.174
0.4613786 	 9.5979623 	 811.3038 	 1.082 	 95.137
0.4641112 	 9.7646399 	 823.2443 	 1.083 	 95.103
0.4668084 	 9.9352066 	 836.9437 	 1.083 	 95.142
0.4694691 	 10.1038520 	 847.6340 	 1.083 	 95.111
0.4720967 	 10.2755008 	 861.9026 	 1.083 	 95.087
0.4746888 	 10.4480481 	 871.3272 	 1.083 	 95.083
0.4772505 	 10.6215850 	 881.5368 	 1.084 	 95.080
0.4797778 	 10.7992212 	 896.3279 	 1.084 	 95.086
0.4822731 	 10.9768812 	 907.5611 	 1.085 	 95.069
0.4847371 	 11.1555726 	 919.1624 	 1.085 	 95.078
0.4871694 	 11.3360707 	 915.4735 	 1.085 	 95.082
0.4895725 	 11.5195688 	 920.5470 	 1.086 	 95.070
0.4919433 	 11.6971421 	 923.4383 	 1.086 	 95.060
0.4942872 	 11.8881262 	 932.8427 	 1.086 	 95.099
0.4966019 	 12.0657728 	 944.7109 	 1.086 	 95.034
0.4988899 	 12.2531155 	 949.6491 	 1.086 	 95.072
0.5011485 	 12.4408420 	 960.3133 	 1.087 	 95.040
0.5033812 	 12.6342160 	 967.4573 	 1.088 	 95.062
0.5055865 	 12.8216221 	 982.2365 	 1.088 	 95.037
0.5077676 	 13.0154365 	 1000.5856 	 1.088 	 95.034
0.5099227 	 13.2091845 	 1013.2169 	 1.088 	 95.020
0.5120524 	 13.4038649 	 1024.6490 	 1.089 	 95.017
0.5141593 	 13.6015381 	 1038.0698 	 1.089 	 95.026
0.5162407 	 13.7950238 	 1052.8429 	 1.089 	 94.994
0.5182987 	 13.9953606 	 1064.0228 	 1.088 	 95.028
0.5203327 	 14.1945625 	 1077.3449 	 1.088 	 94.990
0.5223439 	 14.4014626 	 1085.1459 	 1.087 	 95.004
0.5243323 	 14.6015998 	 1097.0843 	 1.087 	 94.998
0.5262988 	 14.8063904 	 1108.3394 	 1.087 	 94.985
0.5282423 	 15.0133786 	 1115.0273 	 1.088 	 94.980
0.5301670 	 15.2210928 	 1130.5039 	 1.087 	 94.992
0.5320670 	 15.4311800 	 1142.7565 	 1.087 	 94.978
0.5339480 	 15.6379032 	 1157.5408 	 1.088 	 94.954
0.5358081 	 15.8539140 	 1171.4937 	 1.088 	 94.997
0.5376478 	 16.0676347 	 1190.7902 	 1.088 	 94.946
0.5394683 	 16.2788474 	 1202.7153 	 1.088 	 94.956
0.5412688 	 16.4975475 	 1217.6472 	 1.088 	 94.954
0.5430518 	 16.7160591 	 1230.9167 	 1.087 	 94.941
0.5448146 	 16.9361095 	 1255.3383 	 1.088 	 94.939
0.5465594 	 17.1556109 	 1271.8166 	 1.087 	 94.927
0.5482857 	 17.3769619 	 1289.4460 	 1.088 	 94.914
0.5499938 	 17.6017918 	 1313.1544 	 1.088 	 94.921
0.5516839 	 17.8290244 	 1352.7610 	 1.087 	 94.891
0.5533555 	 18.0530266 	 1392.4445 	 1.087 	 94.891
0.5550123 	 18.2850589 	 1442.4487 	 1.087 	 94.902
0.5566506 	 18.5173562 	 1501.8362 	 1.086 	 94.907
0.5582725 	 18.7521591 	 1574.5640 	 1.086 	 94.893
0.5598765 	 18.9844949 	 1685.0747 	 1.085 	 94.886
0.5614655 	 19.2247606 	 1820.8712 	 1.084 	 94.874
0.5630378 	 19.4611733 	 1989.5055 	 1.084 	 94.853
0.5645930 	 19.7088428 	 2213.1468 	 1.084 	 94.832
0.5661332 	 19.9616592 	 2500.1250 	 1.082 	 94.817
0.5676554 	 20.2085456 	 2923.4308 	 1.083 	 94.859
0.5691626 	 20.4703744 	 3431.1866 	 1.081 	 94.880
0.5706541 	 20.7345248 	 4010.9339 	 1.081 	 94.855
0.5721298 	 20.9969890 	 4693.0565 	 1.080 	 94.844
0.5735891 	 21.2648107 	 5564.6098 	 1.080 	 94.806
0.5750326 	 21.5507106 	 6612.9205 	 1.080 	 94.837
0.5764596 	 21.8353075 	 7970.2114 	 1.078 	 94.835
0.5778708 	 22.1392927 	 9427.0008 	 1.078 	 94.826
0.5792638 	 22.4348614 	 11264.3450 	 1.078 	 94.813
0.5806412 	 22.7507542 	 13285.4654 	 1.077 	 94.821
0.5820024 	 23.0737363 	 15812.6240 	 1.077 	 94.827
0.5833460 	 23.4031857 	 18659.2318 	 1.076 	 94.827
0.5846723 	 23.7541267 	 21597.3502 	 1.076 	 94.810
0.5859826 	 24.1030118 	 25003.0199 	 1.075 	 94.826
0.5872751 	 24.4739383 	 28102.5357 	 1.075 	 94.831
0.5885496 	 24.8468209 	 31316.2506 	 1.075 	 94.830
0.5898066 	 25.2357367 	 34105.8598 	 1.074 	 94.804
0.5910467 	 25.6348944 	 37142.7260 	 1.075 	 94.817
0.5922689 	 26.0441731 	 39933.6759 	 1.075 	 94.810
0.5934740 	 26.4586720 	 42847.7647 	 1.075 	 94.810
0.5946605 	 26.9008066 	 44751.9984 	 1.075 	 94.811
0.5958293 	 27.3306186 	 47465.4563 	 1.075 	 94.779
0.5969814 	 27.7804785 	 49343.9848 	 1.075 	 94.784
0.5981170 	 28.2383017 	 51551.0464 	 1.075 	 94.763
0.5992349 	 28.7202553 	 53030.1323 	 1.074 	 94.800
0.6003349 	 29.1942139 	 54074.4657 	 1.074 	 94.800
0.6014182 	 29.6805011 	 55336.4186 	 1.074 	 94.800
0.6024852 	 30.1738991 	 56130.2882 	 1.074 	 94.769
0.6035360 	 30.6954259 	 56861.9457 	 1.073 	 94.810
0.6045704 	 31.2134968 	 57442.2247 	 1.073 	 94.828
0.6055886 	 31.7293659 	 58964.4483 	 1.071 	 94.796
0.6065910 	 32.2655968 	 60159.7614 	 1.071 	 94.817
0.6075779 	 32.8132855 	 61124.0013 	 1.069 	 94.832
0.6085502 	 33.3635496 	 63407.7764 	 1.068 	 94.810
0.6095072 	 33.9306759 	 65935.2987 	 1.067 	 94.836
0.6104497 	 34.4869591 	 69162.1769 	 1.065 	 94.825
0.6113772 	 35.0432685 	 73972.7220 	 1.064 	 94.822
0.6122916 	 35.6100566 	 80918.7354 	 1.061 	 94.837
0.6131919 	 36.1817301 	 90989.0592 	 1.060 	 94.848
0.6140790 	 36.7634972 	 103731.5131 	 1.058 	 94.866
0.6149531 	 37.3426470 	 121399.4096 	 1.056 	 94.897
0.6158150 	 37.9125600 	 143543.1147 	 1.055 	 94.927
0.6166648 	 38.4838453 	 168901.8784 	 1.053 	 94.925
0.6175027 	 39.0620257 	 200037.6469 	 1.051 	 94.965
0.6183293 	 39.6553540 	 233085.2040 	 1.050 	 94.988
0.6191441 	 40.2426694 	 265908.9946 	 1.050 	 95.022
0.6199477 	 40.8460083 	 298830.2185 	 1.051 	 95.033
0.6207399 	 41.5002824 	 326728.5427 	 1.053 	 95.087
0.6215206 	 42.1630593 	 352335.0493 	 1.055 	 95.062
0.6222892 	 42.8599826 	 372704.5341 	 1.058 	 95.081
0.6230454 	 43.5734744 	 388461.4013 	 1.060 	 95.131
0.6237898 	 44.3198672 	 401281.6284 	 1.065 	 95.136
0.6245228 	 45.1012646 	 414626.1005 	 1.068 	 95.152
0.6252426 	 45.8965417 	 424745.1911 	 1.073 	 95.175
0.6259508 	 46.7334091 	 434560.5823 	 1.078 	 95.197
0.6266464 	 47.5978548 	 444889.2473 	 1.083 	 95.179
0.6273304 	 48.4781313 	 455656.2128 	 1.088 	 95.192
0.6280029 	 49.3903814 	 468593.7004 	 1.093 	 95.174
0.6286628 	 50.3352847 	 482226.6580 	 1.099 	 95.191
0.6293102 	 51.3139711 	 497543.7467 	 1.104 	 95.201
0.6299460 	 52.3038942 	 514193.6973 	 1.110 	 95.171
