N=100 	 R=1000000 	 s=1 	 Save [density, Z, rho_t, like/unlike, events per sweep]
0.0001343 	 1.0005124 	 1.1027 	 1.001 	 10.125
0.0132561 	 1.1626644 	 12.2433 	 0.950 	 46.823
0.0260842 	 1.1528337 	 22.8864 	 1.004 	 78.935
0.0385134 	 1.1918211 	 33.4140 	 1.013 	 88.268
0.0505199 	 1.2396127 	 43.8197 	 1.016 	 92.031
0.0621690 	 1.2922482 	 54.0663 	 1.018 	 93.824
0.0734615 	 1.3482635 	 64.4513 	 1.019 	 94.775
0.0844227 	 1.4076975 	 74.6086 	 1.020 	 95.247
0.0950650 	 1.4694208 	 85.8303 	 1.021 	 95.494
0.1053882 	 1.5335759 	 96.3400 	 1.022 	 95.675
0.1154327 	 1.5998776 	 107.3800 	 1.023 	 95.725
0.1251898 	 1.6681956 	 117.5283 	 1.025 	 95.790
0.1346904 	 1.7386062 	 128.5998 	 1.026 	 95.834
0.1439284 	 1.8099244 	 139.0146 	 1.026 	 95.877
0.1529202 	 1.8840547 	 149.6680 	 1.028 	 95.859
0.1616698 	 1.9594401 	 160.6401 	 1.030 	 95.836
0.1702009 	 2.0368894 	 170.5737 	 1.031 	 95.820
0.1785131 	 2.1155538 	 180.3702 	 1.032 	 95.794
0.1866168 	 2.1958485 	 190.6565 	 1.034 	 95.756
0.1945192 	 2.2778824 	 201.3076 	 1.035 	 95.739
0.2022253 	 2.3616568 	 211.9411 	 1.036 	 95.733
0.2097609 	 2.4468570 	 221.5214 	 1.037 	 95.692
0.2171050 	 2.5339080 	 229.7148 	 1.039 	 95.702
0.2242782 	 2.6219435 	 239.4788 	 1.040 	 95.662
0.2312863 	 2.7124110 	 249.0788 	 1.041 	 95.666
0.2381356 	 2.8037318 	 258.5048 	 1.042 	 95.655
0.2448311 	 2.8969999 	 268.1172 	 1.043 	 95.651
0.2513723 	 2.9915913 	 279.4298 	 1.044 	 95.634
0.2577755 	 3.0879055 	 289.3248 	 1.045 	 95.610
0.2640427 	 3.1855700 	 300.2837 	 1.047 	 95.595
0.2701746 	 3.2847890 	 311.4849 	 1.048 	 95.573
0.2761770 	 3.3861263 	 323.8180 	 1.049 	 95.566
0.2820492 	 3.4880592 	 334.0198 	 1.050 	 95.563
0.2878034 	 3.5919176 	 345.6566 	 1.051 	 95.530
0.2934368 	 3.6967600 	 355.8246 	 1.052 	 95.508
0.2989598 	 3.8038333 	 368.6482 	 1.054 	 95.490
0.3043744 	 3.9130949 	 379.4555 	 1.054 	 95.511
0.3096835 	 4.0223359 	 390.5802 	 1.055 	 95.468
0.3148898 	 4.1343781 	 400.6003 	 1.056 	 95.513
0.3199918 	 4.2474012 	 412.5595 	 1.057 	 95.488
0.3249947 	 4.3620930 	 418.8069 	 1.058 	 95.462
0.3299078 	 4.4778987 	 429.6520 	 1.059 	 95.479
0.3347304 	 4.5947324 	 440.5581 	 1.060 	 95.432
0.3394613 	 4.7135349 	 450.8218 	 1.061 	 95.450
0.3441054 	 4.8323175 	 461.9144 	 1.062 	 95.388
0.3486684 	 4.9556407 	 471.6722 	 1.063 	 95.396
0.3531500 	 5.0790601 	 480.0601 	 1.063 	 95.394
0.3575526 	 5.2027941 	 487.0029 	 1.064 	 95.382
0.3618777 	 5.3294397 	 501.1230 	 1.065 	 95.379
0.3661311 	 5.4564426 	 511.1508 	 1.066 	 95.357
0.3703090 	 5.5864158 	 520.6200 	 1.067 	 95.348
0.3744142 	 5.7160185 	 531.7650 	 1.067 	 95.330
0.3784543 	 5.8475043 	 544.5981 	 1.068 	 95.331
0.3824253 	 5.9814043 	 555.5420 	 1.069 	 95.342
0.3863332 	 6.1167091 	 567.1233 	 1.070 	 95.319
0.3901736 	 6.2540113 	 577.6696 	 1.070 	 95.329
0.3939539 	 6.3901098 	 588.7131 	 1.071 	 95.300
0.3976748 	 6.5285644 	 600.8718 	 1.072 	 95.281
0.4013368 	 6.6692866 	 607.5920 	 1.073 	 95.275
0.4049373 	 6.8123173 	 617.8525 	 1.073 	 95.279
0.4084845 	 6.9542286 	 624.0377 	 1.074 	 95.291
0.4119751 	 7.0992479 	 633.1279 	 1.075 	 95.249
0.4154104 	 7.2452553 	 641.5213 	 1.075 	 95.254
0.4187981 	 7.3904609 	 649.6856 	 1.076 	 95.254
0.4221315 	 7.5400352 	 658.8614 	 1.076 	 95.238
0.4254153 	 7.6913153 	 669.0708 	 1.077 	 95.226
0.4286533 	 7.8398786 	 675.5917 	 1.077 	 95.203
0.4318460 	 7.9948548 	 683.7894 	 1.078 	 95.211
0.4349878 	 8.1493891 	 689.6406 	 1.078 	 95.232
0.4380867 	 8.3039574 	 696.3420 	 1.079 	 95.179
0.4411416 	 8.4629134 	 706.8005 	 1.079 	 95.198
0.4441509 	 8.6196576 	 718.4334 	 1.079 	 95.178
0.4471225 	 8.7788379 	 728.2622 	 1.080 	 95.185
0.4500502 	 8.9376013 	 738.4671 	 1.081 	 95.147
0.4529368 	 9.1031415 	 746.7217 	 1.081 	 95.162
0.4557842 	 9.2654160 	 761.0815 	 1.082 	 95.150
0.4585933 	 9.4294409 	 775.3959 	 1.082 	 95.145
0.4613653 	 9.5973382 	 784.9136 	 1.083 	 95.132
0.4640971 	 9.7675028 	 799.4930 	 1.083 	 95.149
0.4667922 	 9.9352660 	 810.1584 	 1.083 	 95.125
0.4694539 	 10.1029431 	 816.3011 	 1.084 	 95.104
0.4720824 	 10.2737268 	 825.2121 	 1.084 	 95.097
0.4746753 	 10.4487340 	 834.9084 	 1.085 	 95.091
0.4772366 	 10.6241133 	 842.7980 	 1.085 	 95.071
0.4797640 	 10.7992133 	 850.4695 	 1.085 	 95.091
0.4822609 	 10.9759725 	 854.4052 	 1.085 	 95.096
0.4847250 	 11.1534146 	 873.0281 	 1.085 	 95.069
0.4871585 	 11.3351621 	 882.9787 	 1.086 	 95.081
0.4895594 	 11.5152854 	 898.5934 	 1.087 	 95.062
0.4919314 	 11.6971125 	 909.3533 	 1.087 	 95.067
0.4942755 	 11.8828977 	 920.3032 	 1.087 	 95.088
0.4965919 	 12.0662808 	 935.6843 	 1.088 	 95.074
0.4988797 	 12.2516821 	 943.4660 	 1.088 	 95.039
0.5011410 	 12.4420486 	 951.7931 	 1.087 	 95.029
0.5033734 	 12.6321641 	 960.3232 	 1.088 	 95.033
0.5055794 	 12.8220434 	 967.4858 	 1.088 	 95.037
0.5077607 	 13.0133795 	 978.5888 	 1.088 	 95.057
0.5099158 	 13.2070160 	 993.5478 	 1.088 	 95.036
0.5120454 	 13.4060259 	 1009.8601 	 1.089 	 95.029
0.5141503 	 13.6031785 	 1024.8880 	 1.089 	 95.025
0.5162310 	 13.7989431 	 1038.5498 	 1.089 	 95.023
0.5182885 	 13.9954420 	 1052.4489 	 1.089 	 95.013
0.5203230 	 14.1962281 	 1067.4353 	 1.090 	 94.972
0.5223351 	 14.3996870 	 1079.3341 	 1.089 	 95.017
0.5243233 	 14.6013068 	 1092.2174 	 1.089 	 95.001
0.5262917 	 14.8027833 	 1104.2553 	 1.090 	 95.003
0.5282355 	 15.0120406 	 1115.2183 	 1.089 	 95.023
0.5301580 	 15.2190217 	 1124.6915 	 1.088 	 94.968
0.5320595 	 15.4271893 	 1151.6653 	 1.089 	 94.974
0.5339421 	 15.6426296 	 1172.6271 	 1.089 	 94.976
0.5358008 	 15.8571591 	 1181.5546 	 1.088 	 94.989
0.5376418 	 16.0683462 	 1192.6221 	 1.088 	 94.948
0.5394611 	 16.2819884 	 1205.1484 	 1.089 	 94.941
0.5412607 	 16.5013000 	 1224.7674 	 1.089 	 94.931
0.5430437 	 16.7182603 	 1235.6708 	 1.089 	 94.927
0.5448076 	 16.9362442 	 1258.8343 	 1.088 	 94.935
0.5465510 	 17.1603237 	 1275.5608 	 1.088 	 94.939
0.5482758 	 17.3825264 	 1310.4974 	 1.088 	 94.906
0.5499828 	 17.6048077 	 1343.2094 	 1.088 	 94.949
0.5516735 	 17.8307095 	 1381.6495 	 1.088 	 94.921
0.5533469 	 18.0521164 	 1438.5180 	 1.087 	 94.892
0.5550016 	 18.2831615 	 1486.9208 	 1.087 	 94.894
0.5566404 	 18.5194429 	 1565.1180 	 1.086 	 94.896
0.5582630 	 18.7469694 	 1651.0974 	 1.085 	 94.884
0.5598672 	 18.9815115 	 1764.7713 	 1.085 	 94.892
0.5614559 	 19.2162343 	 1922.4096 	 1.085 	 94.841
0.5630274 	 19.4597006 	 2126.9868 	 1.084 	 94.886
0.5645851 	 19.6981991 	 2418.5163 	 1.084 	 94.820
0.5661258 	 19.9507203 	 2777.7501 	 1.083 	 94.874
0.5676506 	 20.1898673 	 3244.2244 	 1.082 	 94.826
0.5691588 	 20.4442926 	 3931.8682 	 1.083 	 94.872
0.5706532 	 20.6925907 	 4862.1707 	 1.082 	 94.834
0.5721319 	 20.9496260 	 6087.2053 	 1.082 	 94.841
0.5735955 	 21.2183471 	 7531.7118 	 1.081 	 94.838
0.5750446 	 21.4855149 	 9473.0234 	 1.081 	 94.828
0.5764764 	 21.7614596 	 11757.5210 	 1.082 	 94.826
0.5778927 	 22.0471034 	 14548.9998 	 1.081 	 94.777
0.5792931 	 22.3474839 	 17586.7275 	 1.081 	 94.797
0.5806775 	 22.6472620 	 20839.3624 	 1.081 	 94.771
0.5820450 	 22.9717781 	 24095.0619 	 1.082 	 94.738
0.5833964 	 23.3000212 	 27650.3884 	 1.083 	 94.732
0.5847300 	 23.6277103 	 31860.0704 	 1.083 	 94.737
0.5860470 	 23.9763913 	 36251.8843 	 1.083 	 94.705
0.5873469 	 24.3360218 	 40389.9910 	 1.084 	 94.723
0.5886283 	 24.6992446 	 44550.7661 	 1.085 	 94.663
0.5898947 	 25.0783011 	 48988.5819 	 1.085 	 94.659
0.5911420 	 25.4658630 	 53348.0148 	 1.085 	 94.649
0.5923737 	 25.8715217 	 57934.1906 	 1.087 	 94.590
0.5935865 	 26.2945210 	 62133.8286 	 1.087 	 94.588
0.5947821 	 26.7198635 	 66074.0869 	 1.090 	 94.606
0.5959600 	 27.1525703 	 71002.3663 	 1.089 	 94.559
0.5971188 	 27.6012127 	 75346.3771 	 1.091 	 94.545
0.5982611 	 28.0624868 	 79549.2140 	 1.091 	 94.517
0.5993862 	 28.5376447 	 84322.8165 	 1.092 	 94.488
0.6004941 	 29.0237988 	 89323.2641 	 1.093 	 94.485
0.6015838 	 29.5177608 	 93996.2381 	 1.093 	 94.467
0.6026573 	 30.0313504 	 99149.1929 	 1.094 	 94.438
0.6037139 	 30.5510464 	 104164.4311 	 1.096 	 94.431
0.6047526 	 31.0796515 	 109584.3651 	 1.096 	 94.422
0.6057758 	 31.6141671 	 116251.3035 	 1.096 	 94.385
0.6067824 	 32.1633060 	 122750.3761 	 1.095 	 94.383
0.6077731 	 32.7052473 	 130108.1736 	 1.096 	 94.363
0.6087486 	 33.2573445 	 139248.5869 	 1.095 	 94.331
0.6097090 	 33.8341135 	 147925.8852 	 1.094 	 94.293
0.6106543 	 34.4105910 	 156707.1954 	 1.093 	 94.316
0.6115850 	 34.9760793 	 165295.1736 	 1.091 	 94.288
0.6125006 	 35.5682935 	 176782.8938 	 1.089 	 94.269
0.6134034 	 36.1490944 	 186853.5952 	 1.087 	 94.238
0.6142922 	 36.7396875 	 199722.1913 	 1.085 	 94.258
0.6151678 	 37.3295597 	 210196.7267 	 1.082 	 94.221
0.6160304 	 37.9063280 	 221225.9441 	 1.080 	 94.171
0.6168798 	 38.5097771 	 236240.2388 	 1.077 	 94.165
0.6177169 	 39.1311043 	 251656.4607 	 1.074 	 94.185
0.6185425 	 39.7407750 	 275982.0009 	 1.072 	 94.144
0.6193559 	 40.3780270 	 305574.2846 	 1.070 	 94.155
0.6201564 	 41.0179283 	 340040.0634 	 1.069 	 94.117
0.6209454 	 41.6881030 	 381253.1230 	 1.068 	 94.102
0.6217213 	 42.3902704 	 428083.8426 	 1.067 	 94.088
0.6224855 	 43.0884931 	 481597.9917 	 1.067 	 94.072
0.6232380 	 43.8369411 	 538104.8528 	 1.067 	 94.072
0.6239776 	 44.6125263 	 592377.9995 	 1.067 	 94.078
0.6247049 	 45.4102111 	 642852.6348 	 1.068 	 94.058
0.6254207 	 46.2447656 	 693518.2518 	 1.069 	 94.038
0.6261237 	 47.0947108 	 739530.6360 	 1.069 	 94.040
0.6268133 	 47.9889869 	 779838.8027 	 1.070 	 94.006
0.6274915 	 48.9094233 	 815208.9657 	 1.071 	 94.023
0.6281571 	 49.8601634 	 844867.8648 	 1.071 	 94.052
0.6288107 	 50.7888560 	 871598.5779 	 1.072 	 93.997
0.6294518 	 51.7961511 	 892103.6834 	 1.073 	 94.025
