N=100 	 R=1000000 	 s=1 	 Save [density, Z, rho_t, like/unlike, events per sweep]
0.0001344 	 1.0005118 	 1.1026 	 1.011 	 10.125
0.0132627 	 1.1625842 	 12.1641 	 0.951 	 46.805
0.0260800 	 1.1528169 	 22.8412 	 1.004 	 78.912
0.0385121 	 1.1918208 	 33.4292 	 1.013 	 88.248
0.0505178 	 1.2394809 	 43.7915 	 1.016 	 92.002
0.0621643 	 1.2922109 	 54.2468 	 1.018 	 93.806
0.0734583 	 1.3481351 	 64.9622 	 1.019 	 94.775
0.0844224 	 1.4076022 	 75.1692 	 1.020 	 95.266
0.0950638 	 1.4694214 	 85.2754 	 1.021 	 95.506
0.1054002 	 1.5336041 	 95.2118 	 1.023 	 95.651
0.1154439 	 1.6000289 	 105.7453 	 1.023 	 95.759
0.1252090 	 1.6683082 	 116.7224 	 1.025 	 95.766
0.1347043 	 1.7386126 	 127.1649 	 1.026 	 95.825
0.1439515 	 1.8101758 	 138.3461 	 1.027 	 95.873
0.1529505 	 1.8847005 	 148.0438 	 1.029 	 95.893
0.1617096 	 1.9598536 	 159.0946 	 1.029 	 95.827
0.1702390 	 2.0369404 	 169.7788 	 1.030 	 95.787
0.1785529 	 2.1161177 	 180.3781 	 1.033 	 95.797
0.1866583 	 2.1966477 	 189.1272 	 1.034 	 95.774
0.1945606 	 2.2784952 	 199.5483 	 1.035 	 95.758
0.2022672 	 2.3622590 	 209.6995 	 1.036 	 95.735
0.2097890 	 2.4476436 	 219.1786 	 1.037 	 95.734
0.2171328 	 2.5338558 	 228.8348 	 1.038 	 95.684
0.2243061 	 2.6225566 	 239.8731 	 1.040 	 95.681
0.2313174 	 2.7129527 	 249.0795 	 1.041 	 95.689
0.2381585 	 2.8043428 	 259.2904 	 1.043 	 95.662
0.2448517 	 2.8977258 	 271.8789 	 1.043 	 95.672
0.2513954 	 2.9920077 	 282.1255 	 1.045 	 95.630
0.2578038 	 3.0886777 	 293.3900 	 1.046 	 95.626
0.2640675 	 3.1863102 	 303.9626 	 1.047 	 95.610
0.2701979 	 3.2851123 	 316.1532 	 1.048 	 95.579
0.2762032 	 3.3861592 	 326.0402 	 1.048 	 95.548
0.2820801 	 3.4883210 	 335.0817 	 1.050 	 95.548
0.2878329 	 3.5925714 	 344.6967 	 1.051 	 95.552
0.2934668 	 3.6979960 	 353.0664 	 1.052 	 95.535
0.2989904 	 3.8044490 	 361.2137 	 1.053 	 95.529
0.3044020 	 3.9127269 	 370.3830 	 1.054 	 95.503
0.3097076 	 4.0226004 	 381.1878 	 1.055 	 95.488
0.3149130 	 4.1338265 	 390.7035 	 1.056 	 95.470
0.3200148 	 4.2476654 	 401.0694 	 1.056 	 95.482
0.3250161 	 4.3620955 	 412.1007 	 1.058 	 95.460
0.3299230 	 4.4765482 	 422.7752 	 1.059 	 95.425
0.3347416 	 4.5945532 	 433.8094 	 1.060 	 95.439
0.3394766 	 4.7134271 	 445.5019 	 1.060 	 95.448
0.3441236 	 4.8341765 	 456.2098 	 1.062 	 95.425
0.3486866 	 4.9557410 	 467.0679 	 1.063 	 95.385
0.3531652 	 5.0783148 	 479.4791 	 1.063 	 95.407
0.3575678 	 5.2042014 	 487.3743 	 1.064 	 95.384
0.3618934 	 5.3297179 	 495.8797 	 1.065 	 95.377
0.3661431 	 5.4569674 	 505.7972 	 1.066 	 95.376
0.3703174 	 5.5867612 	 515.5791 	 1.067 	 95.369
0.3744227 	 5.7155996 	 523.0406 	 1.067 	 95.346
0.3784646 	 5.8476591 	 533.8565 	 1.068 	 95.328
0.3824339 	 5.9820773 	 544.7113 	 1.069 	 95.317
0.3863412 	 6.1169288 	 553.0773 	 1.070 	 95.309
0.3901825 	 6.2522561 	 563.3609 	 1.071 	 95.309
0.3939610 	 6.3898292 	 572.6823 	 1.071 	 95.325
0.3976786 	 6.5287159 	 582.0677 	 1.072 	 95.313
0.4013373 	 6.6699029 	 591.1793 	 1.072 	 95.292
0.4049362 	 6.8100812 	 598.0608 	 1.073 	 95.266
0.4084801 	 6.9531949 	 608.8511 	 1.074 	 95.246
0.4119750 	 7.0983129 	 621.8920 	 1.074 	 95.224
0.4154155 	 7.2446787 	 632.6262 	 1.075 	 95.245
0.4188047 	 7.3916769 	 643.0190 	 1.076 	 95.233
0.4221408 	 7.5412422 	 650.8053 	 1.076 	 95.218
0.4254226 	 7.6887433 	 661.1258 	 1.077 	 95.206
0.4286603 	 7.8417528 	 669.6354 	 1.077 	 95.226
0.4318512 	 7.9940184 	 675.5224 	 1.078 	 95.208
0.4349955 	 8.1503829 	 682.4912 	 1.078 	 95.230
0.4380942 	 8.3031969 	 693.0924 	 1.078 	 95.189
0.4411503 	 8.4607107 	 708.9715 	 1.079 	 95.169
0.4441610 	 8.6211946 	 717.6946 	 1.079 	 95.172
0.4471312 	 8.7782016 	 724.9523 	 1.081 	 95.150
0.4500573 	 8.9388551 	 737.2851 	 1.081 	 95.162
0.4529456 	 9.1023343 	 751.5887 	 1.081 	 95.160
0.4557929 	 9.2651223 	 767.4197 	 1.081 	 95.155
0.4586024 	 9.4302360 	 780.8930 	 1.082 	 95.129
0.4613726 	 9.5984969 	 795.2262 	 1.082 	 95.148
0.4641056 	 9.7683423 	 801.2158 	 1.083 	 95.141
0.4668042 	 9.9340598 	 810.9508 	 1.084 	 95.125
0.4694650 	 10.1038838 	 822.7751 	 1.083 	 95.143
0.4720930 	 10.2739449 	 828.0492 	 1.084 	 95.097
0.4746868 	 10.4467749 	 841.2235 	 1.084 	 95.099
0.4772462 	 10.6249266 	 852.0453 	 1.084 	 95.116
0.4797722 	 10.8000302 	 855.0320 	 1.085 	 95.093
0.4822642 	 10.9749872 	 864.8577 	 1.085 	 95.076
0.4847303 	 11.1563509 	 873.6689 	 1.086 	 95.080
0.4871646 	 11.3383761 	 880.8308 	 1.086 	 95.113
0.4895682 	 11.5156557 	 890.8737 	 1.086 	 95.041
0.4919411 	 11.6958781 	 900.0586 	 1.086 	 95.032
0.4942830 	 11.8825783 	 908.2836 	 1.086 	 95.076
0.4965994 	 12.0658277 	 923.7117 	 1.086 	 95.028
0.4988872 	 12.2526740 	 934.8874 	 1.086 	 95.061
0.5011493 	 12.4457330 	 948.6724 	 1.087 	 95.060
0.5033811 	 12.6344242 	 962.5797 	 1.088 	 95.051
0.5055866 	 12.8237245 	 982.7504 	 1.088 	 95.032
0.5077667 	 13.0133528 	 997.1254 	 1.088 	 95.016
0.5099226 	 13.2056154 	 1010.0734 	 1.089 	 94.979
0.5120529 	 13.4037884 	 1015.6104 	 1.088 	 95.030
0.5141580 	 13.5985353 	 1022.6409 	 1.088 	 95.025
0.5162397 	 13.7996263 	 1032.6864 	 1.088 	 95.012
0.5182964 	 14.0009564 	 1051.3796 	 1.088 	 95.011
0.5203292 	 14.1995522 	 1060.6138 	 1.088 	 95.001
0.5223393 	 14.4017284 	 1078.9387 	 1.087 	 95.018
0.5243280 	 14.6001320 	 1079.2570 	 1.088 	 95.010
0.5262944 	 14.8063908 	 1089.1181 	 1.088 	 95.013
0.5282383 	 15.0117361 	 1105.1395 	 1.088 	 94.986
0.5301612 	 15.2183980 	 1109.3797 	 1.088 	 94.990
0.5320633 	 15.4319241 	 1130.8815 	 1.087 	 94.960
0.5339464 	 15.6362186 	 1144.7077 	 1.088 	 94.943
0.5358065 	 15.8479167 	 1150.8246 	 1.088 	 94.971
0.5376470 	 16.0618549 	 1167.7587 	 1.088 	 94.914
0.5394678 	 16.2785813 	 1179.4862 	 1.087 	 94.936
0.5412695 	 16.4988315 	 1200.7136 	 1.087 	 94.953
0.5430507 	 16.7153338 	 1209.9804 	 1.088 	 94.933
0.5448143 	 16.9350366 	 1236.5908 	 1.088 	 94.953
0.5465573 	 17.1591178 	 1253.5069 	 1.087 	 94.952
0.5482836 	 17.3769220 	 1275.5127 	 1.088 	 94.892
0.5499919 	 17.6048279 	 1308.2082 	 1.088 	 94.933
0.5516828 	 17.8300586 	 1334.0768 	 1.087 	 94.881
0.5533541 	 18.0603718 	 1367.2921 	 1.088 	 94.900
0.5550098 	 18.2929678 	 1401.4626 	 1.088 	 94.909
0.5566478 	 18.5283458 	 1452.3283 	 1.088 	 94.912
0.5582677 	 18.7627960 	 1505.9058 	 1.088 	 94.892
0.5598710 	 18.9934062 	 1583.1706 	 1.089 	 94.864
0.5614590 	 19.2375450 	 1673.3607 	 1.088 	 94.888
0.5630309 	 19.4769920 	 1801.3069 	 1.088 	 94.894
0.5645858 	 19.7187597 	 1974.1761 	 1.087 	 94.866
0.5661253 	 19.9648483 	 2194.6225 	 1.088 	 94.887
0.5676485 	 20.2171015 	 2475.6425 	 1.088 	 94.868
0.5691559 	 20.4654986 	 2835.5007 	 1.089 	 94.876
0.5706467 	 20.7210117 	 3354.5150 	 1.089 	 94.858
0.5721235 	 20.9821949 	 4112.4409 	 1.090 	 94.872
0.5735840 	 21.2492433 	 5110.1534 	 1.090 	 94.856
0.5750290 	 21.5129427 	 6452.5684 	 1.091 	 94.860
0.5764590 	 21.7887568 	 8271.7803 	 1.092 	 94.843
0.5778749 	 22.0723478 	 10730.6335 	 1.094 	 94.855
0.5792728 	 22.3752481 	 14022.3526 	 1.095 	 94.868
0.5806549 	 22.6667732 	 17792.5812 	 1.097 	 94.830
0.5820210 	 22.9801160 	 23216.8732 	 1.099 	 94.835
0.5833703 	 23.3044222 	 29396.7381 	 1.100 	 94.834
0.5847035 	 23.6409702 	 37881.9431 	 1.104 	 94.836
0.5860211 	 23.9741840 	 47600.1076 	 1.106 	 94.846
0.5873221 	 24.3234590 	 61150.4181 	 1.109 	 94.835
0.5886056 	 24.6814352 	 73199.2958 	 1.112 	 94.806
0.5898720 	 25.0442924 	 89618.8551 	 1.115 	 94.806
0.5911217 	 25.4285604 	 108128.4802 	 1.118 	 94.819
0.5923549 	 25.8108164 	 129607.7577 	 1.120 	 94.808
0.5935710 	 26.2243867 	 152667.5927 	 1.123 	 94.867
0.5947700 	 26.6244390 	 179386.4766 	 1.126 	 94.820
0.5959518 	 27.0463261 	 207147.8035 	 1.128 	 94.821
0.5971175 	 27.4877778 	 235017.8044 	 1.131 	 94.821
0.5982662 	 27.9319437 	 265322.3894 	 1.133 	 94.835
0.5993978 	 28.3943839 	 297622.7283 	 1.136 	 94.848
0.6005121 	 28.8596707 	 328068.7363 	 1.138 	 94.819
0.6016096 	 29.3332626 	 357155.6710 	 1.140 	 94.813
0.6026887 	 29.8360035 	 387240.0500 	 1.141 	 94.816
0.6037520 	 30.3455657 	 414025.7076 	 1.142 	 94.871
0.6047990 	 30.8648070 	 437298.9766 	 1.143 	 94.832
0.6058294 	 31.3822961 	 459323.4394 	 1.143 	 94.781
0.6068436 	 31.9249646 	 475719.2929 	 1.143 	 94.793
0.6078424 	 32.4663398 	 486819.1026 	 1.144 	 94.773
0.6088248 	 33.0376405 	 493060.3844 	 1.144 	 94.788
0.6097914 	 33.6190073 	 496424.1254 	 1.144 	 94.772
0.6107426 	 34.1909772 	 493586.6680 	 1.144 	 94.761
0.6116791 	 34.7940127 	 484774.9971 	 1.143 	 94.776
0.6125996 	 35.3921234 	 474045.8089 	 1.142 	 94.772
0.6135056 	 36.0031003 	 453032.8428 	 1.140 	 94.766
0.6143976 	 36.6128040 	 430811.0341 	 1.140 	 94.753
0.6152748 	 37.2249587 	 410509.6624 	 1.138 	 94.745
0.6161399 	 37.8443749 	 391317.9789 	 1.137 	 94.769
0.6169909 	 38.4674182 	 374991.1758 	 1.136 	 94.708
0.6178294 	 39.1133635 	 360412.0968 	 1.135 	 94.729
0.6186547 	 39.7343974 	 356146.0491 	 1.134 	 94.729
0.6194685 	 40.3719535 	 356481.1816 	 1.134 	 94.709
0.6202693 	 41.0222310 	 363755.2931 	 1.133 	 94.720
0.6210585 	 41.6949146 	 375357.1981 	 1.134 	 94.745
0.6218358 	 42.3666628 	 387186.6216 	 1.135 	 94.702
0.6226009 	 43.0587238 	 402716.6235 	 1.136 	 94.692
0.6233548 	 43.7665929 	 419212.6655 	 1.139 	 94.694
0.6240966 	 44.4910622 	 432440.6440 	 1.142 	 94.692
0.6248264 	 45.2623209 	 441535.7063 	 1.145 	 94.677
0.6255447 	 46.0444402 	 446319.9984 	 1.149 	 94.655
0.6262512 	 46.8530933 	 449859.3948 	 1.155 	 94.614
0.6269461 	 47.7036601 	 451858.4809 	 1.160 	 94.617
0.6276287 	 48.5682269 	 456351.2774 	 1.167 	 94.582
0.6282998 	 49.4476561 	 462087.7422 	 1.173 	 94.522
0.6289590 	 50.3704055 	 472085.4436 	 1.178 	 94.483
0.6296066 	 51.3377101 	 484308.3548 	 1.186 	 94.482
