N=100 	 R=1000000 	 s=1 	 Save [density, Z, rho_t, like/unlike, events per sweep]
0.0001335 	 1.0005095 	 1.1026 	 1.007 	 10.124
0.0132499 	 1.1626018 	 12.1394 	 0.950 	 46.773
0.0260793 	 1.1527957 	 22.7544 	 1.005 	 78.921
0.0384981 	 1.1918546 	 33.4509 	 1.014 	 88.239
0.0505129 	 1.2395043 	 44.1941 	 1.016 	 92.012
0.0621688 	 1.2921645 	 53.9913 	 1.017 	 93.813
0.0734654 	 1.3482787 	 64.2312 	 1.019 	 94.764
0.0844275 	 1.4076128 	 74.4520 	 1.020 	 95.230
0.0950736 	 1.4695552 	 84.9486 	 1.021 	 95.544
0.1054042 	 1.5336727 	 95.4479 	 1.022 	 95.660
0.1154465 	 1.6001566 	 105.9730 	 1.023 	 95.761
0.1252149 	 1.6683887 	 116.1696 	 1.025 	 95.810
0.1347115 	 1.7387631 	 127.8811 	 1.026 	 95.829
0.1439562 	 1.8101683 	 137.5684 	 1.027 	 95.884
0.1529460 	 1.8840608 	 147.9074 	 1.028 	 95.854
0.1617048 	 1.9595069 	 158.1457 	 1.030 	 95.810
0.1702375 	 2.0370804 	 169.3981 	 1.031 	 95.805
0.1785446 	 2.1157107 	 180.8195 	 1.032 	 95.767
0.1866496 	 2.1966037 	 192.8202 	 1.033 	 95.814
0.1945527 	 2.2785638 	 201.4721 	 1.035 	 95.772
0.2022568 	 2.3617601 	 212.5759 	 1.036 	 95.705
0.2097882 	 2.4472384 	 224.2547 	 1.037 	 95.713
0.2171326 	 2.5339151 	 235.0237 	 1.038 	 95.674
0.2243055 	 2.6229047 	 242.8943 	 1.040 	 95.697
0.2313138 	 2.7129034 	 252.3888 	 1.041 	 95.680
0.2381631 	 2.8043355 	 262.4674 	 1.042 	 95.645
0.2448538 	 2.8977727 	 274.5520 	 1.044 	 95.667
0.2513971 	 2.9921832 	 284.7616 	 1.044 	 95.632
0.2577979 	 3.0878335 	 293.0884 	 1.046 	 95.585
0.2640622 	 3.1855122 	 303.0237 	 1.046 	 95.575
0.2701901 	 3.2851959 	 315.3886 	 1.048 	 95.587
0.2761970 	 3.3862145 	 325.7221 	 1.049 	 95.567
0.2820751 	 3.4887149 	 336.4851 	 1.049 	 95.553
0.2878303 	 3.5926978 	 346.9433 	 1.051 	 95.557
0.2934653 	 3.6978706 	 356.2744 	 1.051 	 95.558
0.2989845 	 3.8047536 	 365.7424 	 1.053 	 95.506
0.3043951 	 3.9128673 	 377.4486 	 1.054 	 95.490
0.3096998 	 4.0230856 	 387.2013 	 1.054 	 95.486
0.3149075 	 4.1348166 	 397.0063 	 1.056 	 95.488
0.3200129 	 4.2471721 	 408.7271 	 1.057 	 95.445
0.3250207 	 4.3609973 	 420.1995 	 1.058 	 95.423
0.3299356 	 4.4774824 	 427.0551 	 1.059 	 95.446
0.3347554 	 4.5954767 	 442.4475 	 1.060 	 95.458
0.3394889 	 4.7134602 	 452.4685 	 1.060 	 95.409
0.3441352 	 4.8346492 	 465.0205 	 1.062 	 95.431
0.3486973 	 4.9562185 	 474.5483 	 1.063 	 95.393
0.3531773 	 5.0787899 	 486.1738 	 1.063 	 95.382
0.3575829 	 5.2041939 	 493.4153 	 1.064 	 95.387
0.3619090 	 5.3288996 	 503.4698 	 1.065 	 95.342
0.3661586 	 5.4571285 	 514.4746 	 1.066 	 95.349
0.3703378 	 5.5863789 	 523.8618 	 1.067 	 95.345
0.3744458 	 5.7172113 	 537.2972 	 1.068 	 95.332
0.3784824 	 5.8487622 	 549.9779 	 1.068 	 95.329
0.3824554 	 5.9815763 	 561.8971 	 1.069 	 95.317
0.3863596 	 6.1171732 	 573.3156 	 1.070 	 95.329
0.3902042 	 6.2537727 	 584.2074 	 1.071 	 95.317
0.3939825 	 6.3909136 	 592.5180 	 1.071 	 95.291
0.3977023 	 6.5286217 	 597.8060 	 1.071 	 95.263
0.4013612 	 6.6697949 	 608.3508 	 1.072 	 95.262
0.4049625 	 6.8127485 	 618.3364 	 1.073 	 95.257
0.4085084 	 6.9550874 	 630.8108 	 1.074 	 95.231
0.4119985 	 7.1007614 	 642.8344 	 1.075 	 95.282
0.4154365 	 7.2461020 	 650.6508 	 1.075 	 95.223
0.4188225 	 7.3925207 	 659.0828 	 1.076 	 95.233
0.4221575 	 7.5406393 	 670.8904 	 1.076 	 95.225
0.4254463 	 7.6925629 	 682.2943 	 1.077 	 95.225
0.4286828 	 7.8422504 	 693.0781 	 1.077 	 95.206
0.4318732 	 7.9961095 	 711.5159 	 1.078 	 95.209
0.4350185 	 8.1497162 	 721.1154 	 1.079 	 95.192
0.4381167 	 8.3064336 	 729.1893 	 1.079 	 95.183
0.4411725 	 8.4598843 	 737.5616 	 1.078 	 95.125
0.4441824 	 8.6242965 	 744.0464 	 1.079 	 95.197
0.4471485 	 8.7808695 	 761.3773 	 1.080 	 95.161
0.4500729 	 8.9421682 	 773.5509 	 1.080 	 95.183
0.4529603 	 9.1037200 	 788.4758 	 1.081 	 95.132
0.4558069 	 9.2690139 	 802.4908 	 1.081 	 95.174
0.4586142 	 9.4318624 	 809.0719 	 1.082 	 95.150
0.4613859 	 9.6005405 	 818.6901 	 1.083 	 95.123
0.4641196 	 9.7642680 	 828.1743 	 1.082 	 95.128
0.4668187 	 9.9365757 	 846.7157 	 1.083 	 95.135
0.4694807 	 10.1062599 	 846.4915 	 1.084 	 95.119
0.4721073 	 10.2762849 	 853.3499 	 1.084 	 95.112
0.4747015 	 10.4511007 	 859.2850 	 1.084 	 95.098
0.4772606 	 10.6258300 	 869.4412 	 1.084 	 95.132
0.4797866 	 10.8003025 	 885.3450 	 1.085 	 95.086
0.4822805 	 10.9801196 	 893.4269 	 1.086 	 95.098
0.4847436 	 11.1543180 	 900.4531 	 1.085 	 95.074
0.4871746 	 11.3356896 	 911.4805 	 1.085 	 95.075
0.4895780 	 11.5176730 	 921.7071 	 1.085 	 95.097
0.4919503 	 11.6970617 	 934.6763 	 1.085 	 95.054
0.4942943 	 11.8843248 	 940.2388 	 1.085 	 95.065
0.4966100 	 12.0680137 	 946.1163 	 1.086 	 95.078
0.4988958 	 12.2525801 	 958.8373 	 1.086 	 95.058
0.5011553 	 12.4423095 	 971.1090 	 1.086 	 95.022
0.5033883 	 12.6310704 	 984.2578 	 1.086 	 95.047
0.5055958 	 12.8242847 	 997.6658 	 1.087 	 95.033
0.5077778 	 13.0111715 	 1004.8903 	 1.087 	 95.007
0.5099339 	 13.2095150 	 1015.3298 	 1.088 	 95.040
0.5120632 	 13.4025757 	 1031.7569 	 1.088 	 95.002
0.5141695 	 13.6005150 	 1050.6387 	 1.087 	 95.021
0.5162512 	 13.7930079 	 1056.8634 	 1.087 	 94.969
0.5183092 	 13.9986271 	 1068.4378 	 1.087 	 95.016
0.5203421 	 14.1995167 	 1076.8008 	 1.087 	 95.005
0.5223549 	 14.4018054 	 1092.5075 	 1.087 	 95.006
0.5243421 	 14.6037197 	 1100.9740 	 1.087 	 94.994
0.5263087 	 14.8092767 	 1115.3251 	 1.087 	 94.986
0.5282525 	 15.0153753 	 1129.2654 	 1.086 	 94.983
0.5301738 	 15.2277486 	 1146.6347 	 1.087 	 95.009
0.5320755 	 15.4299327 	 1161.1186 	 1.088 	 94.963
0.5339560 	 15.6409747 	 1179.6928 	 1.087 	 94.980
0.5358169 	 15.8534834 	 1199.6689 	 1.087 	 94.941
0.5376581 	 16.0656368 	 1214.2719 	 1.087 	 94.945
0.5394783 	 16.2820725 	 1235.2649 	 1.087 	 94.943
0.5412798 	 16.4976012 	 1253.8279 	 1.086 	 94.918
0.5430611 	 16.7223485 	 1278.9060 	 1.087 	 94.962
0.5448241 	 16.9379089 	 1299.4078 	 1.087 	 94.897
0.5465672 	 17.1612067 	 1325.8697 	 1.086 	 94.923
0.5482935 	 17.3865280 	 1345.8801 	 1.086 	 94.919
0.5500014 	 17.6104673 	 1382.0810 	 1.086 	 94.897
0.5516915 	 17.8356045 	 1416.8288 	 1.085 	 94.908
0.5533625 	 18.0613258 	 1459.9411 	 1.086 	 94.906
0.5550180 	 18.2912869 	 1518.1234 	 1.087 	 94.886
0.5566556 	 18.5202234 	 1577.6290 	 1.086 	 94.866
0.5582761 	 18.7515061 	 1663.6967 	 1.086 	 94.866
0.5598816 	 18.9868902 	 1771.9096 	 1.086 	 94.888
0.5614707 	 19.2214985 	 1922.5147 	 1.086 	 94.870
0.5630434 	 19.4496359 	 2177.9239 	 1.086 	 94.869
0.5645997 	 19.6862383 	 2514.9831 	 1.087 	 94.861
0.5661423 	 19.9226682 	 2975.0318 	 1.087 	 94.872
0.5676686 	 20.1610491 	 3691.3940 	 1.088 	 94.880
0.5691812 	 20.3910149 	 4716.4428 	 1.089 	 94.843
0.5706794 	 20.6350747 	 6281.2392 	 1.090 	 94.843
0.5721645 	 20.8743968 	 8547.3855 	 1.091 	 94.831
0.5736335 	 21.1205358 	 11668.5501 	 1.093 	 94.824
0.5750873 	 21.3853772 	 16266.6908 	 1.095 	 94.840
0.5765282 	 21.6300297 	 22788.6412 	 1.098 	 94.810
0.5779540 	 21.8921468 	 31969.5989 	 1.102 	 94.792
0.5793661 	 22.1592440 	 44109.4237 	 1.105 	 94.803
0.5807628 	 22.4298852 	 60755.6637 	 1.108 	 94.798
0.5821464 	 22.7127002 	 81529.5397 	 1.112 	 94.807
0.5835138 	 23.0011933 	 107413.2566 	 1.116 	 94.807
0.5848664 	 23.3048904 	 136892.5419 	 1.120 	 94.814
0.5862038 	 23.6173937 	 174511.0336 	 1.122 	 94.814
0.5875243 	 23.9523187 	 213871.0130 	 1.126 	 94.791
0.5888299 	 24.3025858 	 253831.7771 	 1.131 	 94.783
0.5901178 	 24.6727335 	 293656.7240 	 1.134 	 94.810
0.5913874 	 25.0513776 	 335159.9933 	 1.138 	 94.784
0.5926395 	 25.4563699 	 377468.4667 	 1.141 	 94.802
0.5938738 	 25.8703902 	 416871.8849 	 1.144 	 94.796
0.5950881 	 26.3001962 	 454524.8770 	 1.146 	 94.783
0.5962859 	 26.7560559 	 487883.8711 	 1.150 	 94.794
0.5974636 	 27.2324173 	 517564.1543 	 1.152 	 94.785
0.5986225 	 27.7212314 	 544129.9987 	 1.155 	 94.797
0.5997623 	 28.2218032 	 566815.0779 	 1.157 	 94.787
0.6008835 	 28.7415172 	 589753.4297 	 1.160 	 94.768
0.6019839 	 29.2878959 	 607162.5687 	 1.162 	 94.824
0.6030661 	 29.8367981 	 621093.9038 	 1.164 	 94.783
0.6041294 	 30.4035535 	 637539.7495 	 1.167 	 94.791
0.6051741 	 30.9875426 	 651657.6750 	 1.169 	 94.785
0.6061998 	 31.5860317 	 656316.0986 	 1.171 	 94.766
0.6072073 	 32.1934923 	 665936.7588 	 1.173 	 94.779
0.6081965 	 32.8273777 	 667737.9478 	 1.175 	 94.759
0.6091680 	 33.4770132 	 666178.6615 	 1.177 	 94.770
0.6101210 	 34.1327858 	 660873.7513 	 1.178 	 94.764
0.6110560 	 34.8030193 	 654715.2938 	 1.179 	 94.780
0.6119753 	 35.4894906 	 644776.8033 	 1.180 	 94.783
0.6128769 	 36.1837153 	 631967.8633 	 1.180 	 94.750
0.6137619 	 36.8954091 	 615625.1939 	 1.181 	 94.748
0.6146304 	 37.6180562 	 594877.2389 	 1.181 	 94.733
0.6154839 	 38.3500395 	 571437.9555 	 1.181 	 94.736
0.6163217 	 39.0975483 	 543738.7068 	 1.180 	 94.743
0.6171441 	 39.8414662 	 513703.6360 	 1.179 	 94.725
0.6179524 	 40.5936872 	 483916.5402 	 1.178 	 94.716
0.6187448 	 41.3665237 	 456851.9221 	 1.176 	 94.706
0.6195235 	 42.1414717 	 433669.2678 	 1.174 	 94.690
0.6202888 	 42.9264340 	 412599.2863 	 1.172 	 94.662
0.6210412 	 43.6998480 	 393424.9639 	 1.169 	 94.644
0.6217808 	 44.4915135 	 386154.7501 	 1.167 	 94.613
0.6225082 	 45.2722086 	 386662.8818 	 1.164 	 94.591
0.6232234 	 46.0949382 	 398095.3012 	 1.162 	 94.558
0.6239262 	 46.9157867 	 419311.1539 	 1.160 	 94.539
0.6246168 	 47.7380006 	 447726.2619 	 1.159 	 94.491
0.6252962 	 48.5742642 	 480775.5999 	 1.158 	 94.423
0.6259646 	 49.4679491 	 518588.9513 	 1.159 	 94.408
0.6266210 	 50.3760411 	 556394.4218 	 1.159 	 94.376
0.6272666 	 51.2877621 	 593002.7011 	 1.160 	 94.313
0.6279008 	 52.2691520 	 626749.8917 	 1.162 	 94.318
0.6285237 	 53.2351689 	 655113.4658 	 1.164 	 94.261
0.6291357 	 54.2428017 	 679165.2734 	 1.167 	 94.259
0.6297364 	 55.2601606 	 700802.3822 	 1.170 	 94.185
