N=100 	 R=1000000 	 s=1 	 Save [density, Z, rho_t, like/unlike, events per sweep]
0.0001348 	 1.0005129 	 1.1026 	 1.016 	 10.125
0.0132498 	 1.1626781 	 12.2393 	 0.950 	 46.744
0.0260662 	 1.1527602 	 23.0083 	 1.004 	 78.899
0.0384924 	 1.1918377 	 33.7052 	 1.013 	 88.256
0.0505080 	 1.2394984 	 44.5511 	 1.016 	 92.031
0.0621489 	 1.2920272 	 54.9537 	 1.017 	 93.801
0.0734481 	 1.3482049 	 65.5678 	 1.019 	 94.809
0.0844168 	 1.4074899 	 76.6509 	 1.020 	 95.230
0.0950637 	 1.4695947 	 87.2865 	 1.021 	 95.531
0.1054008 	 1.5336376 	 97.7299 	 1.022 	 95.652
0.1154409 	 1.5997946 	 108.3899 	 1.023 	 95.709
0.1252009 	 1.6682831 	 119.3039 	 1.025 	 95.816
0.1346992 	 1.7385725 	 129.5910 	 1.026 	 95.827
0.1439334 	 1.8098769 	 139.5805 	 1.027 	 95.884
0.1529293 	 1.8839498 	 149.8379 	 1.028 	 95.841
0.1616897 	 1.9594275 	 159.4516 	 1.029 	 95.813
0.1702218 	 2.0368345 	 171.3361 	 1.031 	 95.833
0.1785370 	 2.1156941 	 180.1925 	 1.032 	 95.793
0.1866408 	 2.1962064 	 189.4456 	 1.034 	 95.759
0.1945422 	 2.2783395 	 202.4222 	 1.035 	 95.747
0.2022598 	 2.3620970 	 213.2250 	 1.036 	 95.742
0.2097832 	 2.4472166 	 222.2944 	 1.037 	 95.729
0.2171301 	 2.5343750 	 233.3609 	 1.039 	 95.710
0.2243043 	 2.6224618 	 243.8285 	 1.040 	 95.678
0.2313114 	 2.7123678 	 254.2942 	 1.041 	 95.654
0.2381589 	 2.8041508 	 263.3979 	 1.042 	 95.641
0.2448510 	 2.8974527 	 274.6333 	 1.044 	 95.630
0.2514027 	 2.9917768 	 285.6808 	 1.044 	 95.636
0.2578060 	 3.0884211 	 295.9506 	 1.045 	 95.623
0.2640723 	 3.1865265 	 306.1256 	 1.047 	 95.607
0.2702000 	 3.2858126 	 314.9722 	 1.047 	 95.611
0.2762012 	 3.3864179 	 323.3298 	 1.048 	 95.548
0.2820764 	 3.4883920 	 334.5089 	 1.049 	 95.540
0.2878280 	 3.5925121 	 345.7252 	 1.050 	 95.523
0.2934660 	 3.6979183 	 355.1103 	 1.052 	 95.524
0.2989869 	 3.8042503 	 364.5003 	 1.052 	 95.502
0.3043995 	 3.9130223 	 374.3559 	 1.054 	 95.506
0.3097140 	 4.0235713 	 383.5647 	 1.055 	 95.501
0.3149112 	 4.1354673 	 397.3888 	 1.056 	 95.496
0.3200153 	 4.2473847 	 407.9496 	 1.057 	 95.485
0.3250203 	 4.3621311 	 420.1637 	 1.058 	 95.471
0.3299310 	 4.4778588 	 429.1317 	 1.059 	 95.434
0.3347517 	 4.5948119 	 435.3042 	 1.060 	 95.424
0.3394819 	 4.7138229 	 447.7229 	 1.060 	 95.431
0.3441273 	 4.8333625 	 456.4121 	 1.062 	 95.402
0.3486905 	 4.9553416 	 469.7716 	 1.063 	 95.394
0.3531663 	 5.0783547 	 478.6302 	 1.064 	 95.369
0.3575675 	 5.2032797 	 488.9642 	 1.064 	 95.388
0.3618932 	 5.3302795 	 498.6365 	 1.065 	 95.351
0.3661421 	 5.4586595 	 508.1176 	 1.066 	 95.382
0.3703200 	 5.5856931 	 518.5009 	 1.067 	 95.342
0.3744282 	 5.7157094 	 529.3289 	 1.067 	 95.332
0.3784679 	 5.8471316 	 541.4256 	 1.068 	 95.326
0.3824366 	 5.9817367 	 552.9567 	 1.069 	 95.321
0.3863411 	 6.1153563 	 565.6496 	 1.069 	 95.298
0.3901838 	 6.2534837 	 573.0356 	 1.071 	 95.312
0.3939632 	 6.3898228 	 584.7824 	 1.071 	 95.306
0.3976835 	 6.5281802 	 599.2162 	 1.072 	 95.253
0.4013471 	 6.6699207 	 612.2493 	 1.072 	 95.259
0.4049509 	 6.8104424 	 622.9851 	 1.073 	 95.248
0.4084977 	 6.9549802 	 633.4719 	 1.074 	 95.265
0.4119903 	 7.0991731 	 643.1716 	 1.074 	 95.275
0.4154298 	 7.2452510 	 656.0292 	 1.075 	 95.255
0.4188168 	 7.3932795 	 666.8365 	 1.077 	 95.217
0.4221530 	 7.5404501 	 680.0728 	 1.076 	 95.217
0.4254395 	 7.6908688 	 694.4596 	 1.077 	 95.220
0.4286796 	 7.8434789 	 709.1420 	 1.077 	 95.231
0.4318703 	 7.9951077 	 723.3829 	 1.078 	 95.211
0.4350138 	 8.1492539 	 734.2565 	 1.079 	 95.193
0.4381110 	 8.3043654 	 743.9837 	 1.079 	 95.190
0.4411647 	 8.4626963 	 756.6537 	 1.079 	 95.177
0.4441759 	 8.6204688 	 768.1330 	 1.079 	 95.177
0.4471442 	 8.7787895 	 784.9508 	 1.080 	 95.171
0.4500726 	 8.9406530 	 798.1685 	 1.080 	 95.156
0.4529600 	 9.1047274 	 806.2538 	 1.081 	 95.158
0.4558070 	 9.2662070 	 815.7427 	 1.081 	 95.148
0.4586159 	 9.4320619 	 829.6221 	 1.081 	 95.153
0.4613863 	 9.5984458 	 842.6197 	 1.082 	 95.137
0.4641204 	 9.7664890 	 860.1401 	 1.082 	 95.132
0.4668185 	 9.9330256 	 868.5445 	 1.082 	 95.119
0.4694823 	 10.1053520 	 881.8204 	 1.083 	 95.127
0.4721079 	 10.2745894 	 895.8417 	 1.084 	 95.091
0.4746998 	 10.4524691 	 905.6593 	 1.084 	 95.119
0.4772586 	 10.6240893 	 913.4724 	 1.084 	 95.102
0.4797870 	 10.8010829 	 922.9553 	 1.084 	 95.113
0.4822820 	 10.9761353 	 939.2711 	 1.084 	 95.079
0.4847449 	 11.1573215 	 952.0837 	 1.085 	 95.103
0.4871788 	 11.3383724 	 956.6794 	 1.085 	 95.075
0.4895835 	 11.5176098 	 968.7307 	 1.085 	 95.071
0.4919558 	 11.7016179 	 982.5328 	 1.086 	 95.081
0.4942992 	 11.8835513 	 984.8758 	 1.086 	 95.078
0.4966150 	 12.0715026 	 993.6606 	 1.087 	 95.071
0.4989017 	 12.2542902 	 1007.1312 	 1.086 	 95.043
0.5011617 	 12.4411162 	 1020.4268 	 1.086 	 95.039
0.5033958 	 12.6337693 	 1026.4789 	 1.086 	 95.023
0.5056013 	 12.8227534 	 1034.6847 	 1.087 	 95.043
0.5077830 	 13.0167244 	 1045.9121 	 1.086 	 95.030
0.5099380 	 13.2128143 	 1061.2878 	 1.087 	 95.053
0.5120663 	 13.4102182 	 1069.4142 	 1.087 	 95.053
0.5141709 	 13.6037507 	 1079.6428 	 1.087 	 95.024
0.5162515 	 13.7965077 	 1094.7110 	 1.087 	 95.018
0.5183088 	 14.0005651 	 1098.5659 	 1.087 	 95.018
0.5203430 	 14.1957971 	 1114.5242 	 1.086 	 95.012
0.5223539 	 14.3991032 	 1118.4375 	 1.086 	 94.978
0.5243429 	 14.6042216 	 1127.0874 	 1.087 	 95.012
0.5263091 	 14.8096016 	 1142.0101 	 1.086 	 94.995
0.5282548 	 15.0145450 	 1150.3614 	 1.087 	 94.961
0.5301776 	 15.2204450 	 1155.1743 	 1.087 	 94.987
0.5320777 	 15.4377290 	 1164.2182 	 1.088 	 94.970
0.5339591 	 15.6419072 	 1171.2817 	 1.087 	 94.950
0.5358196 	 15.8511047 	 1186.2151 	 1.087 	 94.979
0.5376590 	 16.0664811 	 1193.0215 	 1.086 	 94.946
0.5394795 	 16.2854112 	 1213.2549 	 1.087 	 94.959
0.5412798 	 16.5023961 	 1229.4946 	 1.087 	 94.964
0.5430626 	 16.7146169 	 1242.1802 	 1.087 	 94.936
0.5448254 	 16.9324719 	 1269.4566 	 1.086 	 94.941
0.5465697 	 17.1490495 	 1293.9104 	 1.086 	 94.940
0.5482963 	 17.3751290 	 1326.0647 	 1.086 	 94.933
0.5500051 	 17.5975060 	 1359.1452 	 1.086 	 94.926
0.5516956 	 17.8237431 	 1415.0346 	 1.085 	 94.912
0.5533687 	 18.0514380 	 1478.1210 	 1.085 	 94.912
0.5550257 	 18.2813088 	 1561.1657 	 1.083 	 94.918
0.5566662 	 18.5064242 	 1675.6432 	 1.083 	 94.895
0.5582888 	 18.7367669 	 1820.9774 	 1.083 	 94.897
0.5598946 	 18.9703702 	 2037.3168 	 1.082 	 94.873
0.5614841 	 19.2054710 	 2306.8740 	 1.082 	 94.864
0.5630584 	 19.4501009 	 2654.7492 	 1.082 	 94.922
0.5646164 	 19.6857891 	 3128.0785 	 1.083 	 94.875
0.5661580 	 19.9360758 	 3716.6496 	 1.083 	 94.865
0.5676841 	 20.1817380 	 4423.8038 	 1.082 	 94.882
0.5691955 	 20.4311194 	 5339.8651 	 1.084 	 94.885
0.5706903 	 20.6894478 	 6441.1187 	 1.085 	 94.875
0.5721677 	 20.9484778 	 7643.1718 	 1.085 	 94.892
0.5736318 	 21.2096739 	 9144.6564 	 1.086 	 94.846
0.5750793 	 21.4972912 	 10502.8753 	 1.087 	 94.869
0.5765101 	 21.7787152 	 12214.1443 	 1.090 	 94.846
0.5779248 	 22.0781632 	 13769.8160 	 1.090 	 94.870
0.5793224 	 22.3798434 	 15715.6846 	 1.092 	 94.855
0.5807043 	 22.6885009 	 17453.6161 	 1.093 	 94.842
0.5820683 	 23.0171775 	 19339.2407 	 1.095 	 94.840
0.5834155 	 23.3561112 	 21003.2247 	 1.097 	 94.853
0.5847455 	 23.6943412 	 22457.4427 	 1.098 	 94.811
0.5860576 	 24.0438277 	 24479.7874 	 1.100 	 94.792
0.5873538 	 24.4106068 	 26040.3430 	 1.101 	 94.786
0.5886325 	 24.7769147 	 28262.7566 	 1.103 	 94.793
0.5898934 	 25.1550281 	 30445.5132 	 1.106 	 94.753
0.5911379 	 25.5486326 	 32841.0394 	 1.108 	 94.745
0.5923635 	 25.9585493 	 35464.6751 	 1.110 	 94.773
0.5935729 	 26.3614454 	 38609.1931 	 1.113 	 94.731
0.5947653 	 26.7875673 	 42010.8909 	 1.116 	 94.744
0.5959392 	 27.2189011 	 45804.0442 	 1.119 	 94.750
0.5970966 	 27.6689089 	 50095.2712 	 1.121 	 94.742
0.5982370 	 28.1042266 	 55027.9484 	 1.124 	 94.695
0.5993591 	 28.5696357 	 59913.5122 	 1.128 	 94.751
0.6004664 	 29.0491631 	 65919.3917 	 1.131 	 94.762
0.6015567 	 29.5120662 	 72328.2586 	 1.135 	 94.735
0.6026306 	 30.0004098 	 79541.9846 	 1.139 	 94.743
0.6036883 	 30.4917238 	 87242.6609 	 1.143 	 94.723
0.6047308 	 31.0060417 	 95090.9766 	 1.146 	 94.779
0.6057577 	 31.5086128 	 104764.0433 	 1.151 	 94.752
0.6067683 	 32.0362015 	 115005.5996 	 1.155 	 94.772
0.6077631 	 32.5737625 	 125704.7976 	 1.161 	 94.788
0.6087426 	 33.1062321 	 136689.6361 	 1.167 	 94.789
0.6097072 	 33.6559795 	 151519.4134 	 1.173 	 94.796
0.6106570 	 34.2225648 	 165579.6005 	 1.179 	 94.823
0.6115925 	 34.8082822 	 181529.5566 	 1.187 	 94.850
0.6125129 	 35.3871448 	 199514.0690 	 1.193 	 94.849
0.6134189 	 36.0013049 	 216129.8216 	 1.201 	 94.851
0.6143105 	 36.6451145 	 233698.2440 	 1.208 	 94.872
0.6151880 	 37.2945411 	 249422.4329 	 1.217 	 94.892
0.6160503 	 37.9576084 	 267518.0459 	 1.223 	 94.907
0.6168975 	 38.6526108 	 284755.5850 	 1.231 	 94.959
0.6177307 	 39.3628943 	 304830.2868 	 1.240 	 94.968
0.6185494 	 40.0884946 	 324526.7087 	 1.248 	 94.935
0.6193532 	 40.8566536 	 343693.8150 	 1.256 	 94.983
0.6201431 	 41.6148503 	 359492.2147 	 1.264 	 94.928
0.6209193 	 42.4251588 	 376785.4525 	 1.270 	 94.979
0.6216804 	 43.2399645 	 391217.1237 	 1.276 	 94.983
0.6224292 	 44.0729715 	 406412.5101 	 1.281 	 94.975
0.6231638 	 44.9212539 	 418945.4362 	 1.286 	 94.958
0.6238847 	 45.7828952 	 432467.0517 	 1.292 	 94.943
0.6245926 	 46.6795220 	 443526.7018 	 1.295 	 94.979
0.6252873 	 47.5839608 	 453812.2928 	 1.298 	 94.935
0.6259691 	 48.5019020 	 464335.2672 	 1.302 	 94.938
0.6266389 	 49.4387516 	 471212.7764 	 1.304 	 94.951
0.6272963 	 50.3878344 	 476780.6060 	 1.307 	 94.959
0.6279414 	 51.3795445 	 478247.9350 	 1.306 	 94.968
0.6285749 	 52.3681578 	 480768.6713 	 1.307 	 94.981
0.6291970 	 53.3605188 	 481009.8078 	 1.305 	 94.986
0.6298083 	 54.3559586 	 481521.9211 	 1.306 	 94.955
