N=100 	 R=1000000 	 s=1 	 Save [density, Z, rho_t, like/unlike, events per sweep]
0.0001339 	 1.0005097 	 1.1026 	 0.999 	 10.124
0.0132639 	 1.1625587 	 12.1905 	 0.951 	 46.851
0.0260860 	 1.1528611 	 22.8091 	 1.004 	 78.928
0.0385055 	 1.1918190 	 33.4107 	 1.012 	 88.248
0.0505210 	 1.2395518 	 43.8211 	 1.016 	 92.009
0.0621698 	 1.2921347 	 54.3776 	 1.018 	 93.776
0.0734745 	 1.3483469 	 64.1008 	 1.019 	 94.801
0.0844456 	 1.4076396 	 74.3115 	 1.020 	 95.232
0.0950893 	 1.4696131 	 84.7832 	 1.021 	 95.514
0.1054297 	 1.5338445 	 95.6329 	 1.022 	 95.659
0.1154683 	 1.6001863 	 105.6094 	 1.023 	 95.728
0.1252289 	 1.6685017 	 115.9741 	 1.024 	 95.789
0.1347293 	 1.7387481 	 126.8389 	 1.026 	 95.813
0.1439659 	 1.8103307 	 137.6259 	 1.027 	 95.897
0.1529597 	 1.8841778 	 146.7744 	 1.028 	 95.847
0.1617169 	 1.9599069 	 157.8288 	 1.029 	 95.820
0.1702503 	 2.0371374 	 168.2702 	 1.032 	 95.813
0.1785610 	 2.1158419 	 179.4276 	 1.032 	 95.804
0.1866595 	 2.1966455 	 188.7837 	 1.033 	 95.814
0.1945633 	 2.2787533 	 199.5988 	 1.035 	 95.752
0.2022718 	 2.3620533 	 208.7449 	 1.036 	 95.720
0.2097952 	 2.4474210 	 219.5365 	 1.037 	 95.698
0.2171409 	 2.5344393 	 229.1282 	 1.038 	 95.699
0.2243165 	 2.6230033 	 239.0033 	 1.040 	 95.688
0.2313252 	 2.7130260 	 250.1057 	 1.041 	 95.637
0.2381746 	 2.8044349 	 262.8671 	 1.042 	 95.662
0.2448738 	 2.8977350 	 272.9591 	 1.043 	 95.660
0.2514201 	 2.9924732 	 282.3092 	 1.044 	 95.632
0.2578252 	 3.0882870 	 293.6952 	 1.045 	 95.613
0.2640943 	 3.1863641 	 304.7005 	 1.047 	 95.584
0.2702277 	 3.2856550 	 312.3755 	 1.047 	 95.579
0.2762302 	 3.3862308 	 321.8990 	 1.049 	 95.553
0.2821057 	 3.4891761 	 332.7804 	 1.049 	 95.576
0.2878644 	 3.5931189 	 342.6520 	 1.050 	 95.525
0.2934972 	 3.6990076 	 351.8003 	 1.052 	 95.553
0.2990181 	 3.8058751 	 359.6329 	 1.052 	 95.535
0.3044293 	 3.9141741 	 367.6893 	 1.053 	 95.530
0.3097341 	 4.0240631 	 376.4839 	 1.055 	 95.497
0.3149348 	 4.1355799 	 385.6905 	 1.056 	 95.479
0.3200378 	 4.2481919 	 397.3334 	 1.057 	 95.481
0.3250404 	 4.3622799 	 409.0364 	 1.058 	 95.454
0.3299534 	 4.4773008 	 416.3288 	 1.059 	 95.430
0.3347728 	 4.5952182 	 425.8485 	 1.060 	 95.420
0.3394990 	 4.7129868 	 438.2633 	 1.061 	 95.404
0.3441443 	 4.8350022 	 446.3541 	 1.062 	 95.404
0.3487062 	 4.9559388 	 457.9839 	 1.062 	 95.402
0.3531905 	 5.0790309 	 469.0499 	 1.063 	 95.391
0.3575900 	 5.2042993 	 478.4776 	 1.064 	 95.382
0.3619149 	 5.3305534 	 491.2961 	 1.065 	 95.387
0.3661639 	 5.4573205 	 504.4018 	 1.065 	 95.361
0.3703430 	 5.5882661 	 513.6874 	 1.067 	 95.381
0.3744510 	 5.7169489 	 525.3102 	 1.067 	 95.338
0.3784903 	 5.8491811 	 536.1743 	 1.068 	 95.338
0.3824628 	 5.9830879 	 549.0573 	 1.069 	 95.332
0.3863613 	 6.1171513 	 557.3303 	 1.069 	 95.316
0.3902023 	 6.2523145 	 567.1046 	 1.071 	 95.311
0.3939828 	 6.3924692 	 579.8514 	 1.071 	 95.309
0.3977028 	 6.5302761 	 590.3192 	 1.072 	 95.270
0.4013642 	 6.6711992 	 602.0458 	 1.072 	 95.275
0.4049677 	 6.8127783 	 612.7918 	 1.074 	 95.272
0.4085130 	 6.9553452 	 624.3088 	 1.074 	 95.271
0.4120034 	 7.0983695 	 631.2877 	 1.074 	 95.238
0.4154419 	 7.2440794 	 644.4354 	 1.074 	 95.224
0.4188290 	 7.3934830 	 656.1970 	 1.075 	 95.229
0.4221632 	 7.5410813 	 670.1592 	 1.076 	 95.230
0.4254470 	 7.6910069 	 679.1695 	 1.077 	 95.210
0.4286841 	 7.8429903 	 691.8045 	 1.077 	 95.210
0.4318748 	 7.9965169 	 700.5825 	 1.078 	 95.207
0.4350174 	 8.1501151 	 712.6183 	 1.079 	 95.183
0.4381142 	 8.3054589 	 718.3219 	 1.079 	 95.194
0.4411677 	 8.4614797 	 726.9609 	 1.080 	 95.178
0.4441785 	 8.6213288 	 741.2159 	 1.080 	 95.176
0.4471484 	 8.7821313 	 747.4644 	 1.081 	 95.175
0.4500760 	 8.9391934 	 758.5771 	 1.081 	 95.148
0.4529625 	 9.1059101 	 764.7715 	 1.080 	 95.181
0.4558110 	 9.2665076 	 773.9409 	 1.082 	 95.161
0.4586195 	 9.4328516 	 785.6260 	 1.081 	 95.137
0.4613904 	 9.6010215 	 799.5633 	 1.082 	 95.150
0.4641247 	 9.7668446 	 808.9944 	 1.082 	 95.140
0.4668218 	 9.9348907 	 812.2354 	 1.083 	 95.127
0.4694850 	 10.1087318 	 817.7528 	 1.084 	 95.136
0.4721115 	 10.2785306 	 830.2221 	 1.084 	 95.105
0.4747047 	 10.4506156 	 837.3637 	 1.084 	 95.148
0.4772628 	 10.6272545 	 847.1622 	 1.085 	 95.131
0.4797891 	 10.8021454 	 855.1381 	 1.085 	 95.109
0.4822837 	 10.9777643 	 861.5182 	 1.085 	 95.095
0.4847488 	 11.1587453 	 865.4229 	 1.086 	 95.100
0.4871820 	 11.3362247 	 871.2484 	 1.086 	 95.084
0.4895838 	 11.5210277 	 881.1422 	 1.087 	 95.102
0.4919578 	 11.6986226 	 892.8509 	 1.086 	 95.040
0.4943035 	 11.8847721 	 900.4112 	 1.087 	 95.077
0.4966176 	 12.0692704 	 910.1800 	 1.086 	 95.061
0.4989063 	 12.2583202 	 928.2145 	 1.087 	 95.065
0.5011669 	 12.4453538 	 944.1671 	 1.088 	 95.047
0.5034001 	 12.6307681 	 958.7710 	 1.087 	 95.024
0.5056071 	 12.8267143 	 970.4723 	 1.087 	 95.038
0.5077879 	 13.0173818 	 981.7118 	 1.087 	 95.025
0.5099437 	 13.2125560 	 995.3233 	 1.088 	 95.041
0.5120746 	 13.4060342 	 1001.3789 	 1.088 	 95.030
0.5141796 	 13.5997512 	 1013.2430 	 1.087 	 95.023
0.5162609 	 13.8000257 	 1026.7002 	 1.087 	 94.995
0.5183172 	 13.9996177 	 1042.7874 	 1.087 	 94.985
0.5203502 	 14.1993407 	 1051.2215 	 1.088 	 94.987
0.5223610 	 14.4027020 	 1065.8014 	 1.087 	 94.981
0.5243486 	 14.6081878 	 1073.2367 	 1.087 	 94.988
0.5263148 	 14.8136758 	 1082.1063 	 1.087 	 95.010
0.5282589 	 15.0143237 	 1090.4647 	 1.087 	 94.984
0.5301836 	 15.2233836 	 1101.8287 	 1.088 	 94.993
0.5320851 	 15.4317030 	 1112.1390 	 1.087 	 94.979
0.5339659 	 15.6487132 	 1125.4015 	 1.087 	 94.975
0.5358250 	 15.8620145 	 1141.0659 	 1.085 	 94.986
0.5376631 	 16.0742769 	 1159.6290 	 1.086 	 94.967
0.5394825 	 16.2957777 	 1171.2969 	 1.086 	 94.968
0.5412818 	 16.5101548 	 1189.4130 	 1.087 	 94.955
0.5430638 	 16.7167972 	 1216.7992 	 1.086 	 94.923
0.5448267 	 16.9360756 	 1225.7332 	 1.087 	 94.914
0.5465706 	 17.1548614 	 1255.3381 	 1.087 	 94.932
0.5482946 	 17.3779771 	 1275.7508 	 1.087 	 94.915
0.5500014 	 17.6033984 	 1285.6892 	 1.087 	 94.901
0.5516915 	 17.8297302 	 1329.1204 	 1.086 	 94.907
0.5533639 	 18.0628057 	 1363.4227 	 1.085 	 94.919
0.5550187 	 18.2903838 	 1411.9003 	 1.085 	 94.927
0.5566547 	 18.5250925 	 1472.9031 	 1.083 	 94.912
0.5582763 	 18.7604059 	 1535.8316 	 1.083 	 94.894
0.5598815 	 18.9998987 	 1630.0712 	 1.083 	 94.898
0.5614687 	 19.2412193 	 1729.7284 	 1.082 	 94.906
0.5630399 	 19.4813164 	 1897.4950 	 1.082 	 94.900
0.5645948 	 19.7300491 	 2102.0917 	 1.082 	 94.887
0.5661329 	 19.9786778 	 2355.4794 	 1.081 	 94.866
0.5676552 	 20.2267461 	 2708.5527 	 1.080 	 94.860
0.5691618 	 20.4886203 	 3199.5092 	 1.079 	 94.880
0.5706527 	 20.7477788 	 3841.1534 	 1.078 	 94.861
0.5721268 	 21.0150924 	 4709.4749 	 1.076 	 94.850
0.5735843 	 21.2843091 	 5823.0249 	 1.074 	 94.835
0.5750268 	 21.5631310 	 7253.9750 	 1.072 	 94.838
0.5764530 	 21.8382277 	 9101.5196 	 1.069 	 94.840
0.5778629 	 22.1369277 	 11510.5570 	 1.067 	 94.833
0.5792573 	 22.4343652 	 14270.7854 	 1.063 	 94.825
0.5806356 	 22.7429423 	 17551.0385 	 1.061 	 94.823
0.5819969 	 23.0565767 	 20863.6162 	 1.058 	 94.826
0.5833426 	 23.3731819 	 24644.5656 	 1.055 	 94.775
0.5846720 	 23.7091013 	 28598.9548 	 1.052 	 94.777
0.5859838 	 24.0662141 	 33193.1100 	 1.049 	 94.779
0.5872784 	 24.4198804 	 37291.8654 	 1.048 	 94.785
0.5885557 	 24.7812003 	 41696.6657 	 1.047 	 94.760
0.5898162 	 25.1652288 	 45796.3916 	 1.047 	 94.803
0.5910600 	 25.5446233 	 50065.2198 	 1.047 	 94.737
0.5922881 	 25.9393066 	 53879.0276 	 1.048 	 94.787
0.5934986 	 26.3491906 	 58631.1977 	 1.049 	 94.778
0.5946920 	 26.7568408 	 64111.5571 	 1.052 	 94.773
0.5958689 	 27.1681015 	 69508.8136 	 1.054 	 94.775
0.5970284 	 27.5924055 	 76179.8505 	 1.057 	 94.771
0.5981718 	 28.0267735 	 82877.6256 	 1.059 	 94.804
0.5992993 	 28.4712627 	 90597.5649 	 1.062 	 94.813
0.6004102 	 28.9189835 	 98771.2805 	 1.066 	 94.798
0.6015054 	 29.3782608 	 108551.8794 	 1.069 	 94.806
0.6025848 	 29.8421152 	 118383.0112 	 1.073 	 94.814
0.6036491 	 30.3298949 	 131076.0466 	 1.075 	 94.830
0.6046962 	 30.8343048 	 144114.7482 	 1.078 	 94.870
0.6057279 	 31.3442762 	 158503.3542 	 1.080 	 94.879
0.6067432 	 31.8626424 	 176621.2357 	 1.082 	 94.929
0.6077446 	 32.3844964 	 194372.1931 	 1.084 	 94.913
0.6087299 	 32.9249235 	 211722.8867 	 1.086 	 94.942
0.6097006 	 33.4557463 	 230703.7366 	 1.087 	 94.937
0.6106574 	 34.0137372 	 251403.1566 	 1.088 	 94.981
0.6115990 	 34.5608503 	 268940.7936 	 1.089 	 94.972
0.6125272 	 35.0987552 	 286295.5482 	 1.087 	 94.998
0.6134420 	 35.6484061 	 304371.4410 	 1.087 	 95.054
0.6143441 	 36.1808419 	 321461.7882 	 1.085 	 95.075
0.6152338 	 36.7180866 	 337907.0976 	 1.082 	 95.084
0.6161118 	 37.2289366 	 355187.7027 	 1.079 	 95.098
0.6169776 	 37.7237686 	 379518.9798 	 1.075 	 95.094
0.6178340 	 38.1974090 	 412344.5338 	 1.069 	 95.164
0.6186812 	 38.6740710 	 456820.3741 	 1.064 	 95.176
0.6195193 	 39.1213901 	 513906.3732 	 1.058 	 95.152
0.6203483 	 39.6112261 	 582658.2504 	 1.053 	 95.220
0.6211673 	 40.1245486 	 658169.7679 	 1.049 	 95.258
0.6219771 	 40.6703279 	 730107.3296 	 1.046 	 95.237
0.6227755 	 41.2735252 	 793951.6374 	 1.045 	 95.251
0.6235629 	 41.9158062 	 847934.2262 	 1.045 	 95.273
0.6243385 	 42.6093184 	 890032.6670 	 1.045 	 95.247
0.6251023 	 43.3410805 	 922363.7501 	 1.047 	 95.271
0.6258533 	 44.1070586 	 946331.4504 	 1.049 	 95.234
0.6265917 	 44.9131899 	 962768.1065 	 1.053 	 95.230
0.6273171 	 45.7420589 	 974327.8938 	 1.055 	 95.223
0.6280296 	 46.6259355 	 981600.9618 	 1.059 	 95.223
0.6287294 	 47.5004784 	 986492.4421 	 1.063 	 95.183
0.6294169 	 48.4153842 	 990198.6100 	 1.066 	 95.158
