N=100 	 R=1000000 	 s=1 	 Save [density, Z, rho_t, like/unlike, events per sweep]
0.0001354 	 1.0005157 	 1.1026 	 1.003 	 10.126
0.0132621 	 1.1625914 	 12.1760 	 0.950 	 46.813
0.0260922 	 1.1528375 	 22.9286 	 1.004 	 78.963
0.0385106 	 1.1918327 	 33.3654 	 1.013 	 88.246
0.0505267 	 1.2396343 	 43.8359 	 1.016 	 92.021
0.0621780 	 1.2922490 	 54.0802 	 1.018 	 93.799
0.0734790 	 1.3482395 	 64.3392 	 1.019 	 94.759
0.0844337 	 1.4075619 	 74.3639 	 1.020 	 95.228
0.0950894 	 1.4695784 	 84.9261 	 1.021 	 95.492
0.1054225 	 1.5339413 	 95.1776 	 1.022 	 95.681
0.1154661 	 1.6002198 	 105.5990 	 1.023 	 95.753
0.1252272 	 1.6686323 	 115.9088 	 1.025 	 95.825
0.1347196 	 1.7387999 	 125.9054 	 1.026 	 95.842
0.1439607 	 1.8102681 	 136.7948 	 1.027 	 95.879
0.1529565 	 1.8842537 	 147.2726 	 1.029 	 95.860
0.1617160 	 1.9598913 	 157.5009 	 1.030 	 95.842
0.1702402 	 2.0370845 	 167.9490 	 1.031 	 95.809
0.1785530 	 2.1160007 	 178.4788 	 1.033 	 95.796
0.1866588 	 2.1964464 	 188.3174 	 1.034 	 95.743
0.1945615 	 2.2785733 	 198.6378 	 1.035 	 95.770
0.2022749 	 2.3620770 	 209.5874 	 1.036 	 95.709
0.2098035 	 2.4479075 	 221.0203 	 1.038 	 95.752
0.2171531 	 2.5350029 	 230.7932 	 1.039 	 95.734
0.2243234 	 2.6227844 	 241.1455 	 1.040 	 95.685
0.2313297 	 2.7131370 	 250.2324 	 1.041 	 95.678
0.2381738 	 2.8043372 	 260.1918 	 1.042 	 95.642
0.2448651 	 2.8977096 	 269.4458 	 1.043 	 95.625
0.2514080 	 2.9919695 	 278.4951 	 1.044 	 95.621
0.2578054 	 3.0881592 	 289.8433 	 1.046 	 95.626
0.2640683 	 3.1866035 	 301.4022 	 1.047 	 95.607
0.2701989 	 3.2857016 	 309.6800 	 1.047 	 95.606
0.2761971 	 3.3866113 	 321.8133 	 1.049 	 95.611
0.2820702 	 3.4887700 	 331.9593 	 1.050 	 95.563
0.2878296 	 3.5921597 	 339.5406 	 1.051 	 95.540
0.2934667 	 3.6982078 	 349.8843 	 1.052 	 95.546
0.2989936 	 3.8047101 	 358.3652 	 1.053 	 95.493
0.3044108 	 3.9130998 	 369.9392 	 1.054 	 95.501
0.3097193 	 4.0235424 	 380.4984 	 1.055 	 95.492
0.3149253 	 4.1351255 	 388.3626 	 1.057 	 95.480
0.3200303 	 4.2484353 	 397.6206 	 1.057 	 95.515
0.3250364 	 4.3616409 	 410.2516 	 1.058 	 95.444
0.3299490 	 4.4780734 	 416.7361 	 1.058 	 95.447
0.3347683 	 4.5956632 	 425.4972 	 1.059 	 95.455
0.3395027 	 4.7147815 	 435.0210 	 1.061 	 95.420
0.3441479 	 4.8337739 	 442.5316 	 1.061 	 95.401
0.3487090 	 4.9561264 	 452.1118 	 1.062 	 95.395
0.3531901 	 5.0793374 	 465.2080 	 1.063 	 95.415
0.3575907 	 5.2041009 	 476.2807 	 1.064 	 95.391
0.3619186 	 5.3313213 	 486.7182 	 1.065 	 95.386
0.3661729 	 5.4585424 	 501.3843 	 1.066 	 95.364
0.3703505 	 5.5869147 	 513.6876 	 1.067 	 95.353
0.3744564 	 5.7180572 	 525.8582 	 1.067 	 95.339
0.3784924 	 5.8481060 	 540.5018 	 1.069 	 95.313
0.3824612 	 5.9820015 	 553.9951 	 1.069 	 95.303
0.3863695 	 6.1170395 	 564.3271 	 1.069 	 95.302
0.3902107 	 6.2529539 	 575.1218 	 1.070 	 95.289
0.3939877 	 6.3911246 	 587.2075 	 1.071 	 95.281
0.3977071 	 6.5281303 	 595.5189 	 1.071 	 95.240
0.4013657 	 6.6704417 	 606.1509 	 1.073 	 95.286
0.4049681 	 6.8120246 	 611.8254 	 1.073 	 95.287
0.4085122 	 6.9555599 	 622.0463 	 1.074 	 95.276
0.4120036 	 7.1008235 	 636.3065 	 1.074 	 95.265
0.4154402 	 7.2457893 	 648.1487 	 1.075 	 95.242
0.4188262 	 7.3923464 	 656.9495 	 1.076 	 95.231
0.4221628 	 7.5409316 	 673.2982 	 1.077 	 95.198
0.4254499 	 7.6931644 	 683.2206 	 1.077 	 95.232
0.4286884 	 7.8430979 	 697.8513 	 1.077 	 95.219
0.4318761 	 7.9953867 	 707.3027 	 1.078 	 95.192
0.4350205 	 8.1512404 	 716.4897 	 1.078 	 95.195
0.4381207 	 8.3072332 	 727.2424 	 1.078 	 95.202
0.4411716 	 8.4617612 	 737.3321 	 1.078 	 95.178
0.4441833 	 8.6194564 	 749.1269 	 1.079 	 95.170
0.4471537 	 8.7796616 	 760.7628 	 1.080 	 95.143
0.4500813 	 8.9434583 	 772.4614 	 1.080 	 95.166
0.4529658 	 9.1035678 	 781.0728 	 1.081 	 95.147
0.4558153 	 9.2674347 	 789.3353 	 1.081 	 95.140
0.4586246 	 9.4312474 	 805.3135 	 1.082 	 95.117
0.4613953 	 9.5997046 	 814.2695 	 1.082 	 95.131
0.4641304 	 9.7678506 	 824.1239 	 1.082 	 95.150
0.4668272 	 9.9349924 	 833.7045 	 1.083 	 95.119
0.4694882 	 10.1058092 	 844.2774 	 1.082 	 95.113
0.4721162 	 10.2784033 	 854.6383 	 1.083 	 95.119
0.4747080 	 10.4525275 	 862.9389 	 1.083 	 95.121
0.4772678 	 10.6284952 	 881.2326 	 1.084 	 95.104
0.4797933 	 10.8004092 	 896.0766 	 1.084 	 95.084
0.4822887 	 10.9772517 	 909.8983 	 1.085 	 95.084
0.4847547 	 11.1565025 	 913.2783 	 1.085 	 95.108
0.4871872 	 11.3392603 	 917.5418 	 1.085 	 95.103
0.4895908 	 11.5193547 	 927.7481 	 1.086 	 95.083
0.4919626 	 11.6993087 	 941.2354 	 1.086 	 95.054
0.4943081 	 11.8799162 	 953.6888 	 1.086 	 95.066
0.4966222 	 12.0703207 	 963.0327 	 1.087 	 95.077
0.4989107 	 12.2551800 	 971.3153 	 1.087 	 95.055
0.5011693 	 12.4489347 	 975.6504 	 1.087 	 95.084
0.5034026 	 12.6327692 	 988.6001 	 1.087 	 95.052
0.5056090 	 12.8245958 	 993.7794 	 1.087 	 95.039
0.5077891 	 13.0177726 	 1003.4247 	 1.088 	 95.035
0.5099440 	 13.2101504 	 1014.5307 	 1.089 	 95.030
0.5120731 	 13.4038426 	 1029.3198 	 1.089 	 95.017
0.5141769 	 13.6028067 	 1046.8472 	 1.089 	 95.001
0.5162583 	 13.7988076 	 1054.5249 	 1.089 	 95.014
0.5183157 	 14.0020368 	 1066.4850 	 1.089 	 95.004
0.5203483 	 14.2003756 	 1074.6921 	 1.089 	 95.010
0.5223600 	 14.4004104 	 1091.7693 	 1.089 	 95.006
0.5243457 	 14.6031109 	 1100.7904 	 1.088 	 94.980
0.5263122 	 14.8113861 	 1119.9908 	 1.088 	 95.000
0.5282562 	 15.0155598 	 1140.0018 	 1.089 	 94.990
0.5301807 	 15.2214353 	 1155.9631 	 1.088 	 94.969
0.5320821 	 15.4316777 	 1152.5586 	 1.088 	 94.954
0.5339638 	 15.6440601 	 1165.2739 	 1.087 	 94.953
0.5358238 	 15.8564371 	 1187.5631 	 1.087 	 94.964
0.5376645 	 16.0649140 	 1209.2203 	 1.087 	 94.930
0.5394836 	 16.2802542 	 1232.0532 	 1.087 	 94.947
0.5412839 	 16.5035751 	 1244.7595 	 1.087 	 94.978
0.5430670 	 16.7158463 	 1269.1980 	 1.087 	 94.936
0.5448303 	 16.9358770 	 1293.8541 	 1.087 	 94.931
0.5465761 	 17.1554302 	 1328.5552 	 1.087 	 94.933
0.5483035 	 17.3755601 	 1350.4677 	 1.087 	 94.936
0.5500129 	 17.6019091 	 1384.7727 	 1.087 	 94.923
0.5517024 	 17.8224776 	 1432.1999 	 1.087 	 94.930
0.5533762 	 18.0505400 	 1477.0228 	 1.087 	 94.905
0.5550299 	 18.2819103 	 1521.0792 	 1.086 	 94.902
0.5566678 	 18.5137819 	 1575.9194 	 1.085 	 94.898
0.5582901 	 18.7452665 	 1650.6558 	 1.086 	 94.904
0.5598964 	 18.9720587 	 1762.9783 	 1.084 	 94.900
0.5614856 	 19.2053532 	 1911.6866 	 1.083 	 94.916
0.5630593 	 19.4476033 	 2107.0977 	 1.084 	 94.920
0.5646176 	 19.6729359 	 2363.1644 	 1.082 	 94.900
0.5661598 	 19.9205540 	 2745.5938 	 1.081 	 94.909
0.5676882 	 20.1604108 	 3383.9904 	 1.078 	 94.882
0.5692015 	 20.4024687 	 4313.4727 	 1.076 	 94.888
0.5706994 	 20.6531087 	 5758.3088 	 1.074 	 94.887
0.5721823 	 20.9023775 	 7955.8999 	 1.070 	 94.873
0.5736505 	 21.1576293 	 11232.3006 	 1.066 	 94.876
0.5751021 	 21.4179611 	 15889.9445 	 1.062 	 94.878
0.5765401 	 21.6841327 	 22624.9857 	 1.056 	 94.881
0.5779617 	 21.9574237 	 31687.9098 	 1.051 	 94.869
0.5793692 	 22.2469876 	 42814.4148 	 1.044 	 94.900
0.5807600 	 22.5409476 	 56135.4054 	 1.038 	 94.916
0.5821343 	 22.8532499 	 72184.9339 	 1.030 	 94.918
0.5834923 	 23.1711232 	 90055.6046 	 1.024 	 94.906
0.5848336 	 23.5020452 	 110856.7082 	 1.016 	 94.913
0.5861578 	 23.8606228 	 129464.9803 	 1.011 	 94.928
0.5874637 	 24.2246191 	 149322.5657 	 1.006 	 94.894
0.5887518 	 24.6033271 	 168626.1767 	 1.002 	 94.933
0.5900236 	 25.0053374 	 185325.8481 	 0.999 	 94.950
0.5912754 	 25.4164493 	 201435.4323 	 0.995 	 94.982
0.5925083 	 25.8352396 	 211396.3294 	 0.993 	 94.952
0.5937239 	 26.2691232 	 217815.1254 	 0.992 	 94.958
0.5949200 	 26.7137822 	 223401.6650 	 0.991 	 94.974
0.5960970 	 27.1784373 	 225658.2911 	 0.991 	 94.970
0.5972555 	 27.6435072 	 225962.3307 	 0.992 	 94.950
0.5983963 	 28.1154026 	 221297.7592 	 0.994 	 94.959
0.5995200 	 28.6066423 	 214462.0849 	 0.996 	 94.967
0.6006248 	 29.0994064 	 204129.0007 	 0.999 	 94.961
0.6017123 	 29.5891340 	 192784.2526 	 1.001 	 94.978
0.6027835 	 30.0781409 	 179509.9043 	 1.005 	 94.975
0.6038395 	 30.5877893 	 167296.9063 	 1.009 	 94.996
0.6048793 	 31.0908367 	 154302.2059 	 1.012 	 95.023
0.6059021 	 31.5719223 	 142326.5637 	 1.016 	 94.995
0.6069114 	 32.0681580 	 132331.6985 	 1.019 	 95.046
0.6079061 	 32.5587770 	 126493.3483 	 1.022 	 95.101
0.6088876 	 33.0438090 	 126193.8444 	 1.024 	 95.144
0.6098551 	 33.5216983 	 131998.4786 	 1.024 	 95.184
0.6108105 	 34.0218653 	 145234.5187 	 1.022 	 95.267
0.6117525 	 34.5173358 	 167983.2751 	 1.020 	 95.342
0.6126825 	 35.0367695 	 196001.3845 	 1.016 	 95.416
0.6136001 	 35.5666332 	 231236.7909 	 1.011 	 95.504
0.6145043 	 36.1066691 	 273699.5453 	 1.005 	 95.580
0.6153961 	 36.6704266 	 318991.7519 	 0.999 	 95.660
0.6162744 	 37.2528411 	 365564.2755 	 0.993 	 95.734
0.6171394 	 37.8480158 	 415838.1904 	 0.988 	 95.843
0.6179909 	 38.4730786 	 470107.5061 	 0.982 	 95.933
0.6188304 	 39.1193402 	 518351.1454 	 0.977 	 95.985
0.6196576 	 39.7781587 	 567144.0488 	 0.972 	 96.072
0.6204704 	 40.4576790 	 610804.4484 	 0.968 	 96.151
0.6212701 	 41.1568551 	 649859.2113 	 0.965 	 96.210
0.6220573 	 41.8721540 	 684195.7311 	 0.963 	 96.235
0.6228313 	 42.6269118 	 717663.6492 	 0.961 	 96.342
0.6235925 	 43.3641393 	 745175.3419 	 0.959 	 96.368
0.6243415 	 44.1553305 	 772815.5158 	 0.958 	 96.423
0.6250775 	 44.9450966 	 797046.9187 	 0.957 	 96.463
0.6258013 	 45.7535697 	 825400.6066 	 0.957 	 96.521
0.6265128 	 46.5739694 	 844399.7453 	 0.956 	 96.535
0.6272120 	 47.4304397 	 864904.7993 	 0.956 	 96.603
0.6278992 	 48.2989491 	 880746.5288 	 0.956 	 96.616
0.6285746 	 49.1845750 	 895095.5263 	 0.956 	 96.619
0.6292380 	 50.0961488 	 909590.7413 	 0.956 	 96.654
0.6298893 	 51.0251008 	 920580.9207 	 0.956 	 96.656
