N=100 	 R=1000000 	 s=1 	 Save [density, Z, rho_t, like/unlike, events per sweep]
0.0001341 	 1.0005106 	 1.1027 	 1.017 	 10.124
0.0132515 	 1.1627121 	 12.2458 	 0.951 	 46.759
0.0260804 	 1.1528261 	 22.8988 	 1.004 	 78.930
0.0384947 	 1.1918079 	 33.0733 	 1.013 	 88.264
0.0505114 	 1.2395116 	 43.8515 	 1.016 	 91.990
0.0621612 	 1.2921508 	 54.6290 	 1.018 	 93.827
0.0734667 	 1.3482247 	 64.7093 	 1.020 	 94.748
0.0844363 	 1.4076266 	 75.5475 	 1.020 	 95.252
0.0950709 	 1.4694796 	 85.8356 	 1.021 	 95.499
0.1054079 	 1.5337486 	 96.4437 	 1.022 	 95.643
0.1154506 	 1.6001216 	 108.4342 	 1.024 	 95.736
0.1252084 	 1.6684053 	 118.4783 	 1.025 	 95.777
0.1346988 	 1.7386560 	 127.9509 	 1.026 	 95.819
0.1439398 	 1.8100403 	 138.1231 	 1.027 	 95.872
0.1529359 	 1.8838261 	 147.0301 	 1.028 	 95.829
0.1616947 	 1.9598946 	 156.8735 	 1.030 	 95.836
0.1702262 	 2.0370135 	 168.0079 	 1.031 	 95.804
0.1785391 	 2.1157896 	 178.8211 	 1.033 	 95.797
0.1866439 	 2.1964869 	 189.5671 	 1.034 	 95.793
0.1945484 	 2.2780197 	 200.3494 	 1.035 	 95.727
0.2022594 	 2.3619436 	 210.2425 	 1.036 	 95.722
0.2097822 	 2.4472902 	 219.3609 	 1.037 	 95.718
0.2171283 	 2.5343404 	 228.6642 	 1.039 	 95.712
0.2243032 	 2.6223655 	 239.2448 	 1.040 	 95.670
0.2313117 	 2.7128729 	 249.9916 	 1.040 	 95.666
0.2381643 	 2.8043636 	 261.6999 	 1.042 	 95.625
0.2448596 	 2.8973649 	 271.6492 	 1.043 	 95.648
0.2514088 	 2.9921422 	 281.7604 	 1.044 	 95.612
0.2578083 	 3.0882488 	 290.8425 	 1.046 	 95.608
0.2640744 	 3.1862006 	 301.2874 	 1.047 	 95.570
0.2702090 	 3.2855291 	 312.7547 	 1.048 	 95.594
0.2762103 	 3.3865007 	 320.8959 	 1.049 	 95.567
0.2820847 	 3.4885194 	 331.7804 	 1.049 	 95.541
0.2878386 	 3.5931872 	 343.4048 	 1.051 	 95.561
0.2934743 	 3.6986529 	 353.4353 	 1.052 	 95.532
0.2989995 	 3.8041452 	 362.0501 	 1.053 	 95.486
0.3044112 	 3.9129213 	 374.7297 	 1.054 	 95.515
0.3097169 	 4.0237363 	 387.7257 	 1.055 	 95.522
0.3149260 	 4.1350017 	 394.7078 	 1.056 	 95.458
0.3200289 	 4.2479454 	 406.7375 	 1.057 	 95.469
0.3250343 	 4.3625525 	 416.4466 	 1.058 	 95.466
0.3299451 	 4.4777053 	 425.2094 	 1.058 	 95.446
0.3347666 	 4.5949563 	 436.9226 	 1.060 	 95.415
0.3395000 	 4.7139149 	 447.8573 	 1.061 	 95.414
0.3441439 	 4.8352660 	 458.4258 	 1.062 	 95.416
0.3487012 	 4.9560877 	 472.2444 	 1.062 	 95.397
0.3531818 	 5.0788279 	 483.1875 	 1.063 	 95.382
0.3575826 	 5.2042025 	 490.1639 	 1.065 	 95.371
0.3619063 	 5.3301105 	 500.3869 	 1.065 	 95.367
0.3661569 	 5.4578009 	 511.6970 	 1.066 	 95.355
0.3703329 	 5.5856466 	 521.7173 	 1.066 	 95.355
0.3744382 	 5.7152843 	 531.1305 	 1.068 	 95.311
0.3784743 	 5.8480166 	 542.5128 	 1.068 	 95.298
0.3824458 	 5.9824546 	 552.7709 	 1.069 	 95.323
0.3863532 	 6.1166952 	 563.3697 	 1.069 	 95.319
0.3901973 	 6.2522245 	 571.3541 	 1.070 	 95.291
0.3939761 	 6.3896735 	 583.5089 	 1.071 	 95.275
0.3976916 	 6.5292178 	 599.8310 	 1.072 	 95.297
0.4013521 	 6.6702710 	 608.8940 	 1.073 	 95.289
0.4049559 	 6.8118552 	 616.8074 	 1.073 	 95.270
0.4085017 	 6.9546306 	 627.8710 	 1.074 	 95.259
0.4119929 	 7.0996885 	 638.9722 	 1.075 	 95.252
0.4154305 	 7.2468644 	 647.0185 	 1.075 	 95.257
0.4188164 	 7.3919104 	 655.0286 	 1.077 	 95.222
0.4221488 	 7.5400295 	 665.8863 	 1.077 	 95.221
0.4254370 	 7.6913390 	 675.3447 	 1.077 	 95.202
0.4286744 	 7.8417818 	 693.4467 	 1.076 	 95.190
0.4318630 	 7.9956658 	 703.0908 	 1.078 	 95.188
0.4350060 	 8.1502945 	 707.8463 	 1.078 	 95.172
0.4381039 	 8.3054408 	 717.7363 	 1.079 	 95.209
0.4411595 	 8.4619621 	 729.5402 	 1.080 	 95.195
0.4441703 	 8.6194734 	 742.4670 	 1.080 	 95.183
0.4471413 	 8.7816603 	 757.0918 	 1.080 	 95.177
0.4500687 	 8.9405358 	 768.7853 	 1.080 	 95.131
0.4529538 	 9.1037821 	 774.8084 	 1.081 	 95.156
0.4558015 	 9.2669805 	 785.4873 	 1.082 	 95.151
0.4586097 	 9.4298065 	 793.3653 	 1.081 	 95.148
0.4613800 	 9.5988032 	 805.1556 	 1.082 	 95.131
0.4641121 	 9.7638943 	 812.4211 	 1.083 	 95.120
0.4668112 	 9.9363295 	 819.9336 	 1.083 	 95.109
0.4694741 	 10.1059940 	 831.5980 	 1.084 	 95.129
0.4721008 	 10.2758187 	 842.1492 	 1.083 	 95.096
0.4746938 	 10.4501317 	 852.5402 	 1.084 	 95.109
0.4772540 	 10.6245139 	 863.7900 	 1.084 	 95.084
0.4797817 	 10.7993812 	 883.3852 	 1.084 	 95.065
0.4822766 	 10.9774125 	 889.0252 	 1.084 	 95.094
0.4847413 	 11.1570341 	 897.4265 	 1.084 	 95.096
0.4871734 	 11.3340525 	 907.1984 	 1.086 	 95.094
0.4895766 	 11.5164691 	 920.8821 	 1.086 	 95.073
0.4919493 	 11.6981188 	 927.6625 	 1.087 	 95.065
0.4942922 	 11.8842810 	 938.0534 	 1.087 	 95.071
0.4966074 	 12.0659538 	 947.7019 	 1.086 	 95.053
0.4988957 	 12.2546048 	 966.9725 	 1.087 	 95.058
0.5011554 	 12.4418974 	 975.6200 	 1.087 	 95.055
0.5033900 	 12.6311336 	 981.6225 	 1.087 	 95.017
0.5055963 	 12.8245540 	 998.5445 	 1.087 	 95.055
0.5077762 	 13.0145734 	 1004.8109 	 1.087 	 95.039
0.5099317 	 13.2092344 	 1016.2537 	 1.087 	 95.039
0.5120612 	 13.4034487 	 1021.1568 	 1.089 	 95.027
0.5141657 	 13.6034124 	 1030.2853 	 1.088 	 95.025
0.5162468 	 13.8008139 	 1032.3435 	 1.089 	 95.020
0.5183035 	 13.9988300 	 1046.6768 	 1.088 	 95.007
0.5203391 	 14.1973123 	 1057.9331 	 1.088 	 95.006
0.5223496 	 14.4011247 	 1074.2359 	 1.088 	 95.007
0.5243387 	 14.6031871 	 1091.2532 	 1.088 	 94.981
0.5263038 	 14.8131392 	 1107.5117 	 1.088 	 94.991
0.5282488 	 15.0196985 	 1121.9556 	 1.088 	 94.984
0.5301727 	 15.2170684 	 1131.4948 	 1.088 	 94.948
0.5320758 	 15.4293447 	 1144.1587 	 1.089 	 94.960
0.5339565 	 15.6401237 	 1163.8594 	 1.089 	 94.961
0.5358175 	 15.8552272 	 1174.8869 	 1.089 	 94.983
0.5376580 	 16.0674687 	 1189.6674 	 1.088 	 94.944
0.5394785 	 16.2853029 	 1216.4582 	 1.089 	 94.939
0.5412798 	 16.5028321 	 1243.1611 	 1.088 	 94.940
0.5430622 	 16.7182781 	 1275.7319 	 1.088 	 94.918
0.5448251 	 16.9379309 	 1301.0489 	 1.088 	 94.933
0.5465690 	 17.1561374 	 1328.8420 	 1.088 	 94.923
0.5482952 	 17.3715783 	 1354.3065 	 1.087 	 94.924
0.5500044 	 17.5936954 	 1391.1442 	 1.087 	 94.895
0.5516955 	 17.8229106 	 1442.3194 	 1.086 	 94.905
0.5533684 	 18.0533959 	 1501.8007 	 1.086 	 94.930
0.5550232 	 18.2778727 	 1581.4628 	 1.086 	 94.897
0.5566621 	 18.5045444 	 1680.8426 	 1.085 	 94.880
0.5582843 	 18.7305303 	 1835.3784 	 1.086 	 94.861
0.5598907 	 18.9644181 	 2008.1007 	 1.084 	 94.888
0.5614811 	 19.2054005 	 2291.8765 	 1.085 	 94.901
0.5630555 	 19.4368035 	 2675.8186 	 1.085 	 94.869
0.5646138 	 19.6728092 	 3159.2253 	 1.085 	 94.868
0.5661569 	 19.9145757 	 3873.5710 	 1.085 	 94.875
0.5676852 	 20.1497135 	 4928.8602 	 1.084 	 94.891
0.5691988 	 20.3924224 	 6260.5572 	 1.084 	 94.826
0.5706955 	 20.6404441 	 8068.3669 	 1.084 	 94.858
0.5721788 	 20.9023631 	 10240.2739 	 1.083 	 94.851
0.5736460 	 21.1619716 	 12755.0637 	 1.083 	 94.851
0.5750965 	 21.4388419 	 15900.5446 	 1.083 	 94.880
0.5765326 	 21.7148085 	 19364.8462 	 1.084 	 94.851
0.5779511 	 22.0078145 	 23042.6158 	 1.084 	 94.837
0.5793545 	 22.3072109 	 27126.4095 	 1.086 	 94.832
0.5807412 	 22.6125754 	 31436.2079 	 1.086 	 94.791
0.5821110 	 22.9348540 	 35739.0015 	 1.086 	 94.822
0.5834636 	 23.2738280 	 40044.7760 	 1.087 	 94.797
0.5847982 	 23.6157456 	 44793.3632 	 1.088 	 94.780
0.5861156 	 23.9716127 	 49157.2232 	 1.089 	 94.783
0.5874145 	 24.3418150 	 53118.3158 	 1.089 	 94.761
0.5886968 	 24.7209012 	 57549.0719 	 1.090 	 94.751
0.5899608 	 25.1113334 	 61835.9921 	 1.091 	 94.768
0.5912068 	 25.5155833 	 67238.1161 	 1.091 	 94.766
0.5924359 	 25.9231197 	 73550.8421 	 1.092 	 94.774
0.5936463 	 26.3369413 	 79389.5215 	 1.092 	 94.773
0.5948389 	 26.7686885 	 85885.6082 	 1.090 	 94.765
0.5960139 	 27.2090274 	 93964.6168 	 1.089 	 94.798
0.5971724 	 27.6572407 	 102740.1895 	 1.088 	 94.792
0.5983124 	 28.1068123 	 112304.2184 	 1.085 	 94.789
0.5994359 	 28.5650144 	 122898.0107 	 1.082 	 94.838
0.6005433 	 29.0362606 	 134902.2373 	 1.078 	 94.821
0.6016344 	 29.5101122 	 149078.3752 	 1.071 	 94.852
0.6027091 	 29.9939586 	 162188.0427 	 1.067 	 94.874
0.6037666 	 30.4869754 	 176577.0986 	 1.062 	 94.887
0.6048094 	 30.9966708 	 190622.7023 	 1.055 	 94.900
0.6058359 	 31.5149471 	 205349.3148 	 1.049 	 94.922
0.6068460 	 32.0503782 	 216962.5082 	 1.043 	 94.981
0.6078406 	 32.5874223 	 227774.9331 	 1.036 	 94.948
0.6088206 	 33.1498493 	 236252.9990 	 1.030 	 94.971
0.6097840 	 33.7136775 	 246881.2195 	 1.023 	 95.006
0.6107333 	 34.2896893 	 254113.0865 	 1.017 	 95.021
0.6116664 	 34.8957689 	 257446.8584 	 1.011 	 95.029
0.6125841 	 35.4999474 	 260757.5159 	 1.004 	 95.021
0.6134871 	 36.1353488 	 264379.9175 	 0.998 	 95.052
0.6143753 	 36.7796516 	 268160.7341 	 0.992 	 95.063
0.6152492 	 37.4254240 	 270794.8082 	 0.986 	 95.069
0.6161085 	 38.0897775 	 277020.1307 	 0.980 	 95.086
0.6169531 	 38.7614860 	 283331.6499 	 0.975 	 95.055
0.6177844 	 39.4563685 	 292153.6366 	 0.969 	 95.057
0.6186019 	 40.1767826 	 302511.8510 	 0.964 	 95.071
0.6194065 	 40.8896536 	 316309.6873 	 0.959 	 95.080
0.6201964 	 41.6247745 	 331982.4986 	 0.955 	 95.097
0.6209729 	 42.3744894 	 352353.9050 	 0.950 	 95.092
0.6217368 	 43.1213084 	 373795.8388 	 0.947 	 95.087
0.6224870 	 43.8971998 	 396388.9858 	 0.943 	 95.090
0.6232253 	 44.6896280 	 415492.6897 	 0.941 	 95.106
0.6239513 	 45.4824180 	 434480.2834 	 0.939 	 95.065
0.6246641 	 46.3219316 	 450371.0426 	 0.938 	 95.045
0.6253646 	 47.1676957 	 456557.5910 	 0.939 	 95.061
0.6260534 	 48.0319499 	 464680.1303 	 0.939 	 95.066
0.6267305 	 48.9052495 	 470079.6514 	 0.940 	 95.010
0.6273961 	 49.8112817 	 470640.0753 	 0.943 	 95.031
0.6280492 	 50.7166575 	 466296.9789 	 0.946 	 94.983
0.6286912 	 51.6634960 	 460623.0525 	 0.949 	 94.991
0.6293223 	 52.6114487 	 447764.2632 	 0.955 	 95.001
0.6299421 	 53.5680798 	 430908.5438 	 0.961 	 94.958
