N=100 	 R=1000000 	 s=1 	 Save [density, Z, rho_t, like/unlike, events per sweep]
0.0001341 	 1.0005110 	 1.1027 	 1.012 	 10.124
0.0132506 	 1.1625903 	 12.2424 	 0.951 	 46.791
0.0260808 	 1.1528500 	 23.0664 	 1.005 	 78.930
0.0384959 	 1.1917617 	 33.6225 	 1.013 	 88.239
0.0505141 	 1.2395175 	 44.0439 	 1.016 	 91.987
0.0621658 	 1.2921778 	 54.6863 	 1.017 	 93.819
0.0734655 	 1.3482189 	 65.1587 	 1.019 	 94.784
0.0844216 	 1.4076712 	 75.3906 	 1.020 	 95.256
0.0950585 	 1.4695041 	 85.9764 	 1.021 	 95.539
0.1053950 	 1.5337101 	 95.6261 	 1.022 	 95.676
0.1154463 	 1.6002513 	 106.8399 	 1.024 	 95.774
0.1252133 	 1.6685368 	 116.5597 	 1.025 	 95.787
0.1347055 	 1.7387608 	 126.0260 	 1.026 	 95.862
0.1439422 	 1.8101977 	 136.1219 	 1.027 	 95.895
0.1529350 	 1.8840470 	 146.8167 	 1.029 	 95.852
0.1616969 	 1.9598036 	 156.4762 	 1.030 	 95.823
0.1702304 	 2.0369985 	 166.2916 	 1.031 	 95.846
0.1785403 	 2.1159152 	 176.6919 	 1.032 	 95.812
0.1866442 	 2.1960964 	 186.4553 	 1.033 	 95.749
0.1945438 	 2.2782616 	 198.5209 	 1.035 	 95.755
0.2022535 	 2.3619829 	 209.6425 	 1.036 	 95.731
0.2097831 	 2.4473962 	 220.9905 	 1.037 	 95.742
0.2171291 	 2.5344281 	 230.2087 	 1.038 	 95.697
0.2243056 	 2.6221360 	 240.8207 	 1.040 	 95.658
0.2313187 	 2.7126520 	 250.4328 	 1.041 	 95.656
0.2381737 	 2.8044953 	 261.9329 	 1.042 	 95.643
0.2448665 	 2.8972218 	 271.0494 	 1.043 	 95.623
0.2514158 	 2.9925620 	 280.5115 	 1.044 	 95.618
0.2578251 	 3.0885893 	 290.0992 	 1.045 	 95.610
0.2640880 	 3.1867123 	 300.4239 	 1.046 	 95.618
0.2702185 	 3.2858807 	 310.2048 	 1.048 	 95.592
0.2762174 	 3.3867519 	 323.0917 	 1.049 	 95.592
0.2820909 	 3.4889116 	 332.7992 	 1.050 	 95.566
0.2878504 	 3.5930365 	 344.7519 	 1.050 	 95.535
0.2934860 	 3.6979505 	 353.7738 	 1.052 	 95.522
0.2990084 	 3.8056194 	 361.6125 	 1.053 	 95.531
0.3044246 	 3.9139659 	 370.8712 	 1.054 	 95.521
0.3097332 	 4.0231029 	 383.0952 	 1.054 	 95.479
0.3149371 	 4.1353298 	 391.8814 	 1.055 	 95.468
0.3200412 	 4.2475571 	 401.7363 	 1.057 	 95.457
0.3250463 	 4.3612614 	 413.0744 	 1.058 	 95.423
0.3299576 	 4.4777937 	 420.3502 	 1.058 	 95.417
0.3347754 	 4.5958048 	 432.7841 	 1.060 	 95.440
0.3395085 	 4.7138811 	 440.4503 	 1.060 	 95.411
0.3441534 	 4.8350749 	 450.9746 	 1.061 	 95.430
0.3487181 	 4.9567172 	 462.8181 	 1.063 	 95.410
0.3531985 	 5.0793259 	 476.7130 	 1.063 	 95.380
0.3576019 	 5.2039714 	 487.7414 	 1.063 	 95.368
0.3619250 	 5.3304826 	 497.8501 	 1.065 	 95.366
0.3661744 	 5.4575948 	 508.8175 	 1.065 	 95.364
0.3703509 	 5.5862881 	 520.2830 	 1.066 	 95.347
0.3744534 	 5.7178935 	 530.1273 	 1.068 	 95.347
0.3784913 	 5.8479751 	 541.6696 	 1.068 	 95.310
0.3824625 	 5.9823688 	 552.1697 	 1.069 	 95.307
0.3863686 	 6.1165547 	 565.4474 	 1.070 	 95.288
0.3902113 	 6.2557304 	 576.3347 	 1.071 	 95.324
0.3939910 	 6.3909485 	 585.9270 	 1.070 	 95.296
0.3977114 	 6.5278635 	 597.2335 	 1.071 	 95.260
0.4013696 	 6.6714506 	 608.2366 	 1.072 	 95.284
0.4049703 	 6.8136618 	 620.6750 	 1.073 	 95.280
0.4085183 	 6.9559079 	 632.0703 	 1.074 	 95.261
0.4120084 	 7.1001242 	 645.7142 	 1.074 	 95.259
0.4154449 	 7.2454221 	 658.0244 	 1.074 	 95.244
0.4188318 	 7.3925339 	 666.6681 	 1.075 	 95.228
0.4221696 	 7.5417850 	 678.0813 	 1.076 	 95.250
0.4254510 	 7.6929027 	 696.4718 	 1.077 	 95.229
0.4286888 	 7.8436326 	 705.7916 	 1.078 	 95.198
0.4318804 	 7.9946934 	 716.2348 	 1.078 	 95.174
0.4350252 	 8.1517368 	 727.6814 	 1.079 	 95.187
0.4381223 	 8.3050844 	 731.7209 	 1.079 	 95.174
0.4411765 	 8.4613718 	 733.9980 	 1.079 	 95.187
0.4441866 	 8.6201259 	 746.5159 	 1.080 	 95.154
0.4471551 	 8.7807628 	 755.8851 	 1.080 	 95.161
0.4500805 	 8.9405810 	 764.6133 	 1.081 	 95.149
0.4529685 	 9.1032554 	 769.7091 	 1.081 	 95.131
0.4558145 	 9.2656459 	 785.0946 	 1.082 	 95.166
0.4586223 	 9.4335480 	 800.5561 	 1.081 	 95.151
0.4613937 	 9.6005130 	 808.5858 	 1.082 	 95.131
0.4641266 	 9.7668459 	 818.6168 	 1.082 	 95.140
0.4668246 	 9.9358371 	 825.1678 	 1.083 	 95.138
0.4694868 	 10.1035957 	 838.2146 	 1.083 	 95.107
0.4721139 	 10.2799769 	 846.7177 	 1.083 	 95.151
0.4747075 	 10.4502977 	 858.7927 	 1.083 	 95.110
0.4772670 	 10.6278041 	 876.4923 	 1.084 	 95.093
0.4797931 	 10.8019121 	 884.4332 	 1.084 	 95.101
0.4822903 	 10.9772095 	 897.3333 	 1.085 	 95.084
0.4847536 	 11.1567773 	 906.2995 	 1.085 	 95.084
0.4871843 	 11.3371816 	 919.5152 	 1.085 	 95.087
0.4895881 	 11.5183440 	 928.1828 	 1.085 	 95.063
0.4919623 	 11.7010186 	 942.9678 	 1.085 	 95.065
0.4943068 	 11.8844892 	 954.7879 	 1.086 	 95.055
0.4966215 	 12.0706374 	 961.6639 	 1.086 	 95.077
0.4989086 	 12.2578585 	 972.8962 	 1.086 	 95.040
0.5011686 	 12.4466229 	 987.5439 	 1.086 	 95.044
0.5034016 	 12.6354655 	 1002.5187 	 1.085 	 95.069
0.5056074 	 12.8284005 	 1006.7277 	 1.086 	 95.029
0.5077878 	 13.0126087 	 1021.2947 	 1.086 	 95.005
0.5099422 	 13.2095973 	 1034.2183 	 1.086 	 95.040
0.5120717 	 13.4062448 	 1048.0903 	 1.087 	 95.015
0.5141753 	 13.6016143 	 1056.7214 	 1.087 	 95.026
0.5162558 	 13.7995415 	 1071.5572 	 1.087 	 95.022
0.5183131 	 14.0013626 	 1082.8809 	 1.087 	 95.007
0.5203468 	 14.1993075 	 1094.6356 	 1.089 	 95.011
0.5223567 	 14.4000190 	 1097.5380 	 1.088 	 95.013
0.5243453 	 14.6007461 	 1112.5878 	 1.088 	 94.981
0.5263117 	 14.8116036 	 1110.5726 	 1.088 	 95.003
0.5282568 	 15.0130619 	 1119.4352 	 1.088 	 94.978
0.5301784 	 15.2218079 	 1135.7979 	 1.087 	 94.990
0.5320797 	 15.4328655 	 1145.2750 	 1.087 	 94.989
0.5339595 	 15.6390842 	 1161.5826 	 1.087 	 94.972
0.5358204 	 15.8488034 	 1182.1458 	 1.087 	 94.945
0.5376621 	 16.0650636 	 1193.2911 	 1.087 	 94.947
0.5394821 	 16.2817335 	 1202.6818 	 1.088 	 94.946
0.5412823 	 16.4950027 	 1219.9244 	 1.088 	 94.950
0.5430634 	 16.7136533 	 1231.2079 	 1.087 	 94.942
0.5448254 	 16.9356740 	 1241.9522 	 1.087 	 94.936
0.5465699 	 17.1576469 	 1270.8246 	 1.086 	 94.917
0.5482966 	 17.3770338 	 1290.2704 	 1.086 	 94.902
0.5500038 	 17.6101428 	 1320.1608 	 1.086 	 94.937
0.5516929 	 17.8310107 	 1348.1311 	 1.086 	 94.899
0.5533648 	 18.0581926 	 1390.0419 	 1.086 	 94.898
0.5550198 	 18.2876030 	 1426.9353 	 1.086 	 94.905
0.5566576 	 18.5257287 	 1470.8567 	 1.087 	 94.892
0.5582784 	 18.7541623 	 1531.3536 	 1.087 	 94.870
0.5598818 	 18.9926764 	 1598.2644 	 1.088 	 94.862
0.5614703 	 19.2314316 	 1705.6914 	 1.088 	 94.875
0.5630429 	 19.4717396 	 1868.9477 	 1.088 	 94.894
0.5645994 	 19.7016476 	 2082.7012 	 1.088 	 94.849
0.5661412 	 19.9441707 	 2384.6275 	 1.088 	 94.867
0.5676665 	 20.1813837 	 2724.5156 	 1.088 	 94.847
0.5691755 	 20.4367483 	 3218.0119 	 1.089 	 94.856
0.5706710 	 20.6923167 	 3839.0626 	 1.090 	 94.812
0.5721505 	 20.9424259 	 4671.7114 	 1.091 	 94.800
0.5736143 	 21.2098771 	 5785.5084 	 1.092 	 94.806
0.5750617 	 21.4727351 	 7128.1359 	 1.093 	 94.766
0.5764936 	 21.7564627 	 8733.8249 	 1.095 	 94.788
0.5779110 	 22.0408946 	 10665.1085 	 1.096 	 94.745
0.5793121 	 22.3330324 	 12889.5402 	 1.097 	 94.744
0.5806972 	 22.6367200 	 15423.2854 	 1.100 	 94.721
0.5820652 	 22.9496102 	 18216.3261 	 1.101 	 94.698
0.5834163 	 23.2769100 	 20915.9422 	 1.104 	 94.676
0.5847512 	 23.6191077 	 23636.7697 	 1.106 	 94.670
0.5860688 	 23.9740617 	 27109.6724 	 1.109 	 94.641
0.5873682 	 24.3346878 	 30674.1789 	 1.111 	 94.644
0.5886500 	 24.7168880 	 34180.9057 	 1.113 	 94.634
0.5899145 	 25.0993521 	 38003.3820 	 1.117 	 94.640
0.5911619 	 25.4962423 	 41651.7377 	 1.121 	 94.593
0.5923910 	 25.8925134 	 45800.8722 	 1.124 	 94.603
0.5936020 	 26.3166350 	 49324.3198 	 1.127 	 94.580
0.5947955 	 26.7511846 	 53439.9663 	 1.131 	 94.599
0.5959720 	 27.1912733 	 57280.5336 	 1.134 	 94.587
0.5971300 	 27.6391163 	 61366.4879 	 1.138 	 94.551
0.5982707 	 28.1145553 	 64785.3005 	 1.141 	 94.556
0.5993948 	 28.5912979 	 67769.8139 	 1.144 	 94.525
0.6004995 	 29.0821347 	 70010.2343 	 1.148 	 94.540
0.6015871 	 29.5882850 	 72209.7210 	 1.149 	 94.511
0.6026578 	 30.1078319 	 73526.9879 	 1.152 	 94.535
0.6037114 	 30.6342370 	 74397.0569 	 1.154 	 94.540
0.6047485 	 31.1762742 	 75344.9058 	 1.155 	 94.507
0.6057685 	 31.7177064 	 75053.7320 	 1.155 	 94.488
0.6067718 	 32.2899090 	 73973.7449 	 1.156 	 94.487
0.6077589 	 32.8568130 	 73671.2148 	 1.156 	 94.471
0.6087307 	 33.4506579 	 72974.2793 	 1.155 	 94.482
0.6096856 	 34.0352546 	 72055.0495 	 1.154 	 94.443
0.6106245 	 34.6283701 	 71792.8308 	 1.152 	 94.397
0.6115479 	 35.2679826 	 71607.2735 	 1.150 	 94.454
0.6124563 	 35.8827863 	 71729.8888 	 1.148 	 94.409
0.6133495 	 36.5128282 	 72829.3084 	 1.146 	 94.428
0.6142280 	 37.1529558 	 75710.2701 	 1.143 	 94.372
0.6150926 	 37.8078958 	 79184.3038 	 1.141 	 94.389
0.6159430 	 38.4664081 	 84128.8499 	 1.138 	 94.356
0.6167792 	 39.1356544 	 91687.9603 	 1.136 	 94.366
0.6176021 	 39.8033616 	 100217.4302 	 1.133 	 94.337
0.6184117 	 40.4871569 	 110243.5318 	 1.131 	 94.289
0.6192091 	 41.1932480 	 122287.2861 	 1.129 	 94.311
0.6199922 	 41.9102442 	 136381.3328 	 1.128 	 94.307
0.6207634 	 42.6350665 	 150860.7736 	 1.126 	 94.282
0.6215217 	 43.3833912 	 167174.0167 	 1.125 	 94.266
0.6222678 	 44.1384609 	 183163.6461 	 1.125 	 94.221
0.6230009 	 44.9161084 	 198479.4224 	 1.124 	 94.235
0.6237225 	 45.7144102 	 211853.4325 	 1.123 	 94.202
0.6244322 	 46.5420209 	 221756.3945 	 1.122 	 94.198
0.6251293 	 47.3799576 	 231440.3620 	 1.121 	 94.192
0.6258147 	 48.2346421 	 240183.2014 	 1.121 	 94.143
0.6264879 	 49.1265837 	 247557.2202 	 1.120 	 94.149
0.6271494 	 50.0358174 	 250038.4592 	 1.120 	 94.113
0.6278003 	 50.9671944 	 252686.9123 	 1.118 	 94.089
0.6284389 	 51.9195676 	 255394.0226 	 1.118 	 94.113
0.6290660 	 52.8980972 	 256879.9277 	 1.116 	 94.103
0.6296824 	 53.8803430 	 256017.2482 	 1.114 	 94.096
