N=100 	 R=1000000 	 s=1 	 Save [density, Z, rho_t, like/unlike, events per sweep]
0.0001351 	 1.0005146 	 1.1026 	 1.009 	 10.125
0.0132684 	 1.1624461 	 12.2453 	 0.950 	 46.868
0.0260888 	 1.1528587 	 22.8574 	 1.005 	 78.933
0.0385026 	 1.1918310 	 33.3751 	 1.013 	 88.239
0.0505221 	 1.2395385 	 43.9286 	 1.016 	 91.983
0.0621705 	 1.2921077 	 54.2520 	 1.017 	 93.800
0.0734612 	 1.3481769 	 64.4469 	 1.019 	 94.733
0.0844278 	 1.4076196 	 74.9875 	 1.020 	 95.240
0.0950716 	 1.4694894 	 85.2440 	 1.022 	 95.489
0.1054107 	 1.5336948 	 95.7823 	 1.022 	 95.641
0.1154550 	 1.6002666 	 106.0591 	 1.023 	 95.757
0.1252170 	 1.6683324 	 116.9189 	 1.025 	 95.785
0.1347176 	 1.7386058 	 127.8360 	 1.026 	 95.817
0.1439581 	 1.8101813 	 138.1306 	 1.027 	 95.863
0.1529493 	 1.8839575 	 148.3193 	 1.028 	 95.826
0.1617078 	 1.9597411 	 158.8285 	 1.030 	 95.822
0.1702419 	 2.0370159 	 168.5196 	 1.031 	 95.825
0.1785601 	 2.1160631 	 179.4169 	 1.033 	 95.802
0.1866634 	 2.1964801 	 190.1914 	 1.034 	 95.773
0.1945718 	 2.2787400 	 200.0119 	 1.035 	 95.771
0.2022847 	 2.3627423 	 210.6537 	 1.036 	 95.763
0.2098088 	 2.4474974 	 221.3502 	 1.037 	 95.697
0.2171582 	 2.5345712 	 232.0730 	 1.038 	 95.706
0.2243350 	 2.6229263 	 242.4358 	 1.040 	 95.683
0.2313471 	 2.7132643 	 253.3625 	 1.041 	 95.669
0.2381918 	 2.8041176 	 262.2008 	 1.042 	 95.637
0.2448873 	 2.8977768 	 273.9658 	 1.043 	 95.623
0.2514313 	 2.9924051 	 283.2194 	 1.044 	 95.620
0.2578331 	 3.0886533 	 295.3484 	 1.046 	 95.609
0.2640986 	 3.1861697 	 305.5816 	 1.046 	 95.597
0.2702331 	 3.2863299 	 315.1282 	 1.048 	 95.581
0.2762356 	 3.3873675 	 324.7841 	 1.048 	 95.583
0.2821114 	 3.4895489 	 336.2967 	 1.050 	 95.572
0.2878638 	 3.5938232 	 345.7243 	 1.051 	 95.557
0.2935009 	 3.6987689 	 356.6159 	 1.051 	 95.557
0.2990249 	 3.8055622 	 368.0388 	 1.053 	 95.525
0.3044381 	 3.9138830 	 380.0154 	 1.054 	 95.500
0.3097428 	 4.0236293 	 387.5286 	 1.054 	 95.477
0.3149458 	 4.1361872 	 394.4380 	 1.056 	 95.476
0.3200469 	 4.2474192 	 405.0863 	 1.057 	 95.427
0.3250544 	 4.3619602 	 415.2247 	 1.058 	 95.434
0.3299693 	 4.4782714 	 423.8084 	 1.059 	 95.463
0.3347889 	 4.5952832 	 431.7434 	 1.059 	 95.425
0.3395206 	 4.7145896 	 442.5511 	 1.061 	 95.399
0.3441649 	 4.8353688 	 454.4095 	 1.061 	 95.403
0.3487289 	 4.9571495 	 464.4124 	 1.062 	 95.422
0.3532057 	 5.0786353 	 475.5987 	 1.063 	 95.362
0.3576070 	 5.2055075 	 485.3542 	 1.064 	 95.376
0.3619325 	 5.3304278 	 495.5246 	 1.065 	 95.345
0.3661786 	 5.4582247 	 505.8702 	 1.066 	 95.366
0.3703567 	 5.5871019 	 516.2722 	 1.067 	 95.350
0.3744642 	 5.7176328 	 527.3714 	 1.067 	 95.329
0.3784999 	 5.8487303 	 540.0861 	 1.068 	 95.321
0.3824670 	 5.9832632 	 549.7890 	 1.068 	 95.309
0.3863712 	 6.1183574 	 558.5360 	 1.070 	 95.315
0.3902117 	 6.2522174 	 569.4904 	 1.070 	 95.287
0.3939884 	 6.3909899 	 580.7813 	 1.072 	 95.277
0.3977055 	 6.5311692 	 588.1505 	 1.072 	 95.290
0.4013651 	 6.6707045 	 600.5999 	 1.073 	 95.293
0.4049665 	 6.8112427 	 611.3961 	 1.073 	 95.261
0.4085149 	 6.9539801 	 625.0192 	 1.075 	 95.258
0.4120046 	 7.0999681 	 632.2486 	 1.075 	 95.237
0.4154401 	 7.2444200 	 641.0406 	 1.075 	 95.245
0.4188246 	 7.3909228 	 650.9200 	 1.076 	 95.209
0.4221607 	 7.5398169 	 661.6070 	 1.076 	 95.213
0.4254451 	 7.6892785 	 672.9878 	 1.077 	 95.186
0.4286823 	 7.8423182 	 685.2742 	 1.076 	 95.205
0.4318739 	 7.9963189 	 697.7018 	 1.077 	 95.235
0.4350175 	 8.1503557 	 705.7523 	 1.078 	 95.229
0.4381144 	 8.3052883 	 712.2692 	 1.079 	 95.183
0.4411696 	 8.4639922 	 724.2290 	 1.079 	 95.189
0.4441807 	 8.6214546 	 738.0581 	 1.079 	 95.177
0.4471531 	 8.7798528 	 750.9970 	 1.079 	 95.172
0.4500798 	 8.9395052 	 761.0377 	 1.080 	 95.152
0.4529676 	 9.1038411 	 777.9308 	 1.080 	 95.153
0.4558166 	 9.2685351 	 787.5820 	 1.081 	 95.138
0.4586259 	 9.4346234 	 797.4443 	 1.082 	 95.160
0.4613979 	 9.5986185 	 821.6369 	 1.082 	 95.138
0.4641313 	 9.7667792 	 827.6042 	 1.082 	 95.107
0.4668287 	 9.9350817 	 837.4131 	 1.083 	 95.145
0.4694908 	 10.1037961 	 849.4656 	 1.083 	 95.074
0.4721192 	 10.2786666 	 863.8665 	 1.083 	 95.120
0.4747152 	 10.4525333 	 877.3762 	 1.083 	 95.109
0.4772754 	 10.6247975 	 893.1664 	 1.084 	 95.101
0.4798021 	 10.7999294 	 905.3720 	 1.084 	 95.080
0.4822961 	 10.9789267 	 926.1226 	 1.085 	 95.064
0.4847614 	 11.1582216 	 933.8241 	 1.084 	 95.082
0.4871941 	 11.3394690 	 947.8919 	 1.085 	 95.113
0.4895972 	 11.5180217 	 958.5003 	 1.086 	 95.072
0.4919697 	 11.7001819 	 964.0770 	 1.087 	 95.063
0.4943124 	 11.8848591 	 981.5183 	 1.087 	 95.061
0.4966272 	 12.0717308 	 993.9794 	 1.087 	 95.075
0.4989154 	 12.2565318 	 1011.9987 	 1.086 	 95.042
0.5011739 	 12.4443160 	 1030.1384 	 1.086 	 95.023
0.5034054 	 12.6358578 	 1046.0388 	 1.087 	 95.036
0.5056122 	 12.8247744 	 1060.2579 	 1.088 	 95.023
0.5077910 	 13.0199559 	 1073.7640 	 1.088 	 95.029
0.5099460 	 13.2037100 	 1077.1837 	 1.088 	 95.024
0.5120774 	 13.4023769 	 1091.6116 	 1.089 	 95.013
0.5141818 	 13.6022749 	 1095.5205 	 1.088 	 95.019
0.5162622 	 13.7952833 	 1103.9094 	 1.089 	 95.007
0.5183207 	 13.9995655 	 1107.2358 	 1.089 	 95.011
0.5203541 	 14.1980502 	 1113.9350 	 1.088 	 95.005
0.5223664 	 14.4017965 	 1124.5626 	 1.089 	 94.988
0.5243546 	 14.6038982 	 1133.1800 	 1.089 	 94.970
0.5263202 	 14.8080619 	 1148.1432 	 1.090 	 94.971
0.5282643 	 15.0129152 	 1153.8715 	 1.089 	 94.987
0.5301866 	 15.2211476 	 1161.6082 	 1.090 	 94.976
0.5320869 	 15.4332308 	 1172.7297 	 1.090 	 94.994
0.5339675 	 15.6400630 	 1180.7204 	 1.089 	 94.968
0.5358282 	 15.8542775 	 1189.4042 	 1.090 	 94.955
0.5376681 	 16.0705494 	 1210.6685 	 1.090 	 94.961
0.5394887 	 16.2802515 	 1228.2065 	 1.090 	 94.933
0.5412894 	 16.4976187 	 1243.9818 	 1.090 	 94.936
0.5430708 	 16.7200709 	 1261.7687 	 1.089 	 94.942
0.5448335 	 16.9368223 	 1274.5241 	 1.089 	 94.923
0.5465779 	 17.1570479 	 1297.2888 	 1.088 	 94.877
0.5483032 	 17.3772279 	 1318.2706 	 1.089 	 94.913
0.5500122 	 17.6020669 	 1343.0942 	 1.089 	 94.908
0.5517018 	 17.8308788 	 1377.2327 	 1.089 	 94.922
0.5533755 	 18.0527350 	 1417.6688 	 1.089 	 94.881
0.5550301 	 18.2849849 	 1466.4894 	 1.090 	 94.904
0.5566689 	 18.5135521 	 1530.7067 	 1.090 	 94.893
0.5582915 	 18.7424847 	 1616.0972 	 1.089 	 94.880
0.5598970 	 18.9848730 	 1726.0938 	 1.089 	 94.923
0.5614861 	 19.2069363 	 1886.7482 	 1.088 	 94.863
0.5630589 	 19.4422564 	 2103.8705 	 1.088 	 94.881
0.5646176 	 19.6818415 	 2456.2334 	 1.086 	 94.880
0.5661604 	 19.9132276 	 2904.4380 	 1.087 	 94.841
0.5676875 	 20.1629827 	 3569.6808 	 1.087 	 94.869
0.5692003 	 20.4092649 	 4508.7246 	 1.086 	 94.846
0.5706962 	 20.6577530 	 5839.1649 	 1.085 	 94.854
0.5721776 	 20.9100118 	 7533.9085 	 1.084 	 94.854
0.5736439 	 21.1661546 	 9728.6272 	 1.084 	 94.835
0.5750935 	 21.4386034 	 12348.8018 	 1.083 	 94.861
0.5765287 	 21.7057042 	 15622.9508 	 1.082 	 94.818
0.5779490 	 21.9927276 	 19057.1320 	 1.081 	 94.846
0.5793532 	 22.2905758 	 23149.6072 	 1.081 	 94.816
0.5807410 	 22.6026148 	 27383.8942 	 1.082 	 94.829
0.5821116 	 22.9309476 	 31924.4836 	 1.083 	 94.825
0.5834639 	 23.2547129 	 37260.0583 	 1.084 	 94.808
0.5847998 	 23.5985315 	 42595.6541 	 1.085 	 94.793
0.5861186 	 23.9574579 	 48031.7509 	 1.087 	 94.786
0.5874189 	 24.3288256 	 53954.1548 	 1.089 	 94.826
0.5887017 	 24.7121995 	 59443.6048 	 1.090 	 94.803
0.5899662 	 25.0869616 	 64781.6515 	 1.091 	 94.806
0.5912150 	 25.4809869 	 70090.5292 	 1.093 	 94.788
0.5924455 	 25.8937060 	 75358.5629 	 1.094 	 94.792
0.5936579 	 26.2985379 	 80189.2104 	 1.094 	 94.770
0.5948529 	 26.7188245 	 85486.5613 	 1.095 	 94.801
0.5960310 	 27.1426093 	 90886.1778 	 1.095 	 94.793
0.5971916 	 27.5728856 	 95895.9598 	 1.095 	 94.790
0.5983361 	 28.0054046 	 100704.0273 	 1.092 	 94.833
0.5994642 	 28.4643484 	 105713.3554 	 1.092 	 94.843
0.6005764 	 28.9045067 	 109322.9629 	 1.091 	 94.847
0.6016730 	 29.3531864 	 113614.5318 	 1.088 	 94.838
0.6027532 	 29.8206577 	 119266.4787 	 1.086 	 94.890
0.6038182 	 30.2811125 	 125580.5447 	 1.082 	 94.896
0.6048686 	 30.7563430 	 133097.9274 	 1.079 	 94.914
0.6059036 	 31.2433592 	 143042.4862 	 1.075 	 94.947
0.6069243 	 31.7244412 	 155750.1345 	 1.071 	 94.997
0.6079302 	 32.2116496 	 172709.7644 	 1.066 	 95.026
0.6089223 	 32.7133247 	 193497.0052 	 1.061 	 95.076
0.6099002 	 33.2147191 	 217968.5405 	 1.056 	 95.076
0.6108646 	 33.7348779 	 249639.2481 	 1.051 	 95.118
0.6118146 	 34.2655760 	 286491.9433 	 1.046 	 95.180
0.6127508 	 34.7834540 	 327781.0582 	 1.042 	 95.187
0.6136742 	 35.3268757 	 374708.3938 	 1.038 	 95.218
0.6145839 	 35.9002890 	 422875.5573 	 1.035 	 95.247
0.6154803 	 36.4785105 	 474973.2859 	 1.031 	 95.264
0.6163633 	 37.0638830 	 527307.0083 	 1.029 	 95.240
0.6172321 	 37.7049316 	 576515.0964 	 1.028 	 95.276
0.6180878 	 38.3295635 	 625784.2460 	 1.025 	 95.271
0.6189299 	 39.0024167 	 668080.1626 	 1.025 	 95.277
0.6197592 	 39.6940735 	 706685.9698 	 1.025 	 95.300
0.6205744 	 40.3924211 	 746533.4088 	 1.024 	 95.274
0.6213754 	 41.1130664 	 777887.4755 	 1.024 	 95.250
0.6221626 	 41.8476473 	 808484.9774 	 1.026 	 95.250
0.6229369 	 42.6178258 	 832850.9673 	 1.026 	 95.268
0.6236977 	 43.4037403 	 853602.5813 	 1.026 	 95.228
0.6244455 	 44.2142378 	 871624.1395 	 1.026 	 95.230
0.6251795 	 45.0456002 	 883627.5348 	 1.028 	 95.233
0.6259009 	 45.8896055 	 895643.9599 	 1.028 	 95.245
0.6266099 	 46.7438522 	 905715.4569 	 1.029 	 95.200
0.6273060 	 47.6485845 	 914831.6639 	 1.030 	 95.193
0.6279893 	 48.5564992 	 920974.0559 	 1.032 	 95.193
0.6286606 	 49.4822652 	 929066.2712 	 1.032 	 95.179
0.6293194 	 50.4366509 	 934388.9206 	 1.034 	 95.189
0.6299665 	 51.4166931 	 937916.4524 	 1.035 	 95.191
