N=100 	 R=1000000 	 s=1 	 Save [density, Z, rho_t, like/unlike, events per sweep]
0.0001353 	 1.0005146 	 1.1027 	 1.017 	 10.125
0.0132527 	 1.1627267 	 12.1826 	 0.951 	 46.779
0.0260790 	 1.1528083 	 22.8335 	 1.004 	 78.906
0.0385074 	 1.1917655 	 33.3911 	 1.013 	 88.223
0.0505178 	 1.2395813 	 43.7982 	 1.016 	 92.027
0.0621655 	 1.2921938 	 54.9022 	 1.018 	 93.795
0.0734605 	 1.3481618 	 65.3892 	 1.018 	 94.770
0.0844201 	 1.4075844 	 75.7840 	 1.020 	 95.234
0.0950621 	 1.4694674 	 85.9705 	 1.021 	 95.519
0.1053955 	 1.5336178 	 95.6821 	 1.022 	 95.667
0.1154393 	 1.6001047 	 105.5326 	 1.024 	 95.774
0.1252064 	 1.6683513 	 116.0103 	 1.025 	 95.789
0.1347051 	 1.7385669 	 126.1312 	 1.026 	 95.801
0.1439451 	 1.8099250 	 137.3278 	 1.027 	 95.852
0.1529373 	 1.8839198 	 148.5311 	 1.029 	 95.833
0.1616968 	 1.9594514 	 159.2501 	 1.030 	 95.822
0.1702322 	 2.0370878 	 169.8472 	 1.031 	 95.802
0.1785474 	 2.1159315 	 179.0986 	 1.032 	 95.776
0.1866515 	 2.1960240 	 188.3889 	 1.033 	 95.748
0.1945524 	 2.2784215 	 200.4977 	 1.035 	 95.756
0.2022652 	 2.3622289 	 209.7454 	 1.036 	 95.764
0.2097898 	 2.4473030 	 221.2036 	 1.038 	 95.706
0.2171366 	 2.5344213 	 231.7779 	 1.039 	 95.698
0.2243102 	 2.6224968 	 240.9385 	 1.040 	 95.677
0.2313246 	 2.7124672 	 249.0004 	 1.041 	 95.647
0.2381749 	 2.8048018 	 259.2336 	 1.042 	 95.655
0.2448746 	 2.8973968 	 268.5304 	 1.043 	 95.635
0.2514231 	 2.9924001 	 279.2952 	 1.044 	 95.609
0.2578290 	 3.0887793 	 291.5829 	 1.045 	 95.611
0.2640825 	 3.1860424 	 300.4444 	 1.046 	 95.587
0.2702136 	 3.2851695 	 308.4558 	 1.047 	 95.560
0.2762133 	 3.3863317 	 318.6813 	 1.049 	 95.560
0.2820917 	 3.4887316 	 331.5436 	 1.050 	 95.545
0.2878485 	 3.5930667 	 345.2718 	 1.051 	 95.544
0.2934802 	 3.6981026 	 355.3838 	 1.052 	 95.526
0.2990014 	 3.8049302 	 365.1697 	 1.053 	 95.502
0.3044130 	 3.9129568 	 375.2201 	 1.054 	 95.493
0.3097172 	 4.0222894 	 386.5970 	 1.055 	 95.458
0.3149215 	 4.1351230 	 395.8238 	 1.056 	 95.496
0.3200272 	 4.2474493 	 401.2280 	 1.057 	 95.465
0.3250330 	 4.3618148 	 409.4822 	 1.058 	 95.433
0.3299477 	 4.4786454 	 418.3674 	 1.059 	 95.445
0.3347664 	 4.5955146 	 432.8065 	 1.059 	 95.426
0.3395017 	 4.7130694 	 444.1787 	 1.061 	 95.420
0.3441495 	 4.8342721 	 456.8210 	 1.061 	 95.407
0.3487143 	 4.9568593 	 467.0525 	 1.062 	 95.398
0.3531934 	 5.0803848 	 478.6542 	 1.064 	 95.400
0.3575951 	 5.2036318 	 489.6214 	 1.064 	 95.388
0.3619192 	 5.3304816 	 496.8675 	 1.065 	 95.358
0.3661706 	 5.4584683 	 505.0879 	 1.066 	 95.362
0.3703488 	 5.5875932 	 510.6441 	 1.067 	 95.357
0.3744533 	 5.7179987 	 519.0059 	 1.068 	 95.345
0.3784897 	 5.8495099 	 528.3138 	 1.068 	 95.330
0.3824593 	 5.9825780 	 537.4244 	 1.069 	 95.336
0.3863638 	 6.1176953 	 549.8095 	 1.070 	 95.318
0.3902053 	 6.2529758 	 558.7353 	 1.071 	 95.288
0.3939848 	 6.3906479 	 567.5287 	 1.071 	 95.272
0.3976993 	 6.5296610 	 581.8750 	 1.072 	 95.299
0.4013584 	 6.6692705 	 596.7074 	 1.072 	 95.267
0.4049616 	 6.8128771 	 606.9051 	 1.073 	 95.299
0.4085090 	 6.9546052 	 619.1428 	 1.073 	 95.264
0.4120029 	 7.0995391 	 631.1783 	 1.075 	 95.254
0.4154406 	 7.2463705 	 641.2147 	 1.075 	 95.246
0.4188263 	 7.3945790 	 655.3214 	 1.076 	 95.251
0.4221616 	 7.5425836 	 667.2051 	 1.076 	 95.245
0.4254439 	 7.6914923 	 675.7681 	 1.077 	 95.216
0.4286814 	 7.8440907 	 683.6526 	 1.078 	 95.236
0.4318719 	 7.9958780 	 694.3934 	 1.078 	 95.220
0.4350154 	 8.1489026 	 705.7095 	 1.078 	 95.189
0.4381124 	 8.3049278 	 719.0321 	 1.079 	 95.171
0.4411690 	 8.4623525 	 723.5266 	 1.079 	 95.199
0.4441829 	 8.6197871 	 728.5739 	 1.079 	 95.165
0.4471515 	 8.7825737 	 736.8630 	 1.080 	 95.179
0.4500794 	 8.9409634 	 747.4179 	 1.081 	 95.169
0.4529654 	 9.1034006 	 760.5420 	 1.081 	 95.146
0.4558132 	 9.2689594 	 770.5510 	 1.082 	 95.171
0.4586229 	 9.4324741 	 780.8265 	 1.082 	 95.168
0.4613946 	 9.5994078 	 786.3411 	 1.082 	 95.144
0.4641314 	 9.7665745 	 795.9132 	 1.082 	 95.110
0.4668288 	 9.9352760 	 805.9419 	 1.083 	 95.128
0.4694909 	 10.1081220 	 815.4269 	 1.083 	 95.126
0.4721184 	 10.2783844 	 827.1921 	 1.083 	 95.138
0.4747130 	 10.4502225 	 835.4672 	 1.083 	 95.103
0.4772737 	 10.6256003 	 845.2389 	 1.084 	 95.071
0.4797987 	 10.8017805 	 857.6270 	 1.084 	 95.079
0.4822924 	 10.9741514 	 867.0382 	 1.084 	 95.073
0.4847554 	 11.1555044 	 874.2901 	 1.085 	 95.075
0.4871892 	 11.3359176 	 879.9319 	 1.084 	 95.062
0.4895910 	 11.5191688 	 892.1319 	 1.085 	 95.078
0.4919651 	 11.7004405 	 899.7795 	 1.086 	 95.057
0.4943088 	 11.8862653 	 920.6973 	 1.086 	 95.053
0.4966254 	 12.0705981 	 928.3668 	 1.086 	 95.052
0.4989122 	 12.2556051 	 944.3265 	 1.086 	 95.052
0.5011738 	 12.4483691 	 952.3336 	 1.086 	 95.074
0.5034047 	 12.6370390 	 975.4432 	 1.086 	 95.083
0.5056104 	 12.8248705 	 984.0591 	 1.086 	 95.049
0.5077909 	 13.0186481 	 1001.9590 	 1.087 	 95.059
0.5099445 	 13.2096120 	 1015.9872 	 1.088 	 95.039
0.5120743 	 13.4047500 	 1024.5935 	 1.088 	 95.024
0.5141803 	 13.5971949 	 1044.2927 	 1.088 	 95.005
0.5162637 	 13.7945668 	 1073.8636 	 1.087 	 95.039
0.5183205 	 13.9928552 	 1086.4086 	 1.087 	 94.999
0.5203558 	 14.1971891 	 1093.2267 	 1.088 	 94.984
0.5223683 	 14.4014589 	 1100.4744 	 1.088 	 95.001
0.5243558 	 14.6023107 	 1100.6654 	 1.087 	 94.980
0.5263229 	 14.8081057 	 1102.6427 	 1.087 	 94.966
0.5282678 	 15.0104923 	 1118.2542 	 1.087 	 94.983
0.5301904 	 15.2188234 	 1138.4256 	 1.087 	 94.982
0.5320936 	 15.4334152 	 1152.3022 	 1.088 	 94.962
0.5339754 	 15.6411766 	 1175.2453 	 1.088 	 94.966
0.5358359 	 15.8525663 	 1192.3323 	 1.088 	 94.928
0.5376762 	 16.0658310 	 1200.0625 	 1.088 	 94.905
0.5394952 	 16.2836709 	 1210.3818 	 1.088 	 94.952
0.5412960 	 16.4997502 	 1231.3775 	 1.088 	 94.939
0.5430773 	 16.7148184 	 1258.8925 	 1.087 	 94.946
0.5448410 	 16.9356519 	 1264.1201 	 1.087 	 94.941
0.5465867 	 17.1593189 	 1297.7506 	 1.088 	 94.954
0.5483131 	 17.3829242 	 1327.8352 	 1.086 	 94.899
0.5500204 	 17.6004504 	 1361.9557 	 1.086 	 94.931
0.5517111 	 17.8294167 	 1409.0720 	 1.086 	 94.913
0.5533851 	 18.0565052 	 1458.5443 	 1.085 	 94.893
0.5550417 	 18.2853342 	 1525.3038 	 1.085 	 94.903
0.5566790 	 18.5175129 	 1608.4039 	 1.084 	 94.918
0.5583022 	 18.7458321 	 1709.5408 	 1.084 	 94.892
0.5599075 	 18.9866929 	 1837.6282 	 1.083 	 94.901
0.5614978 	 19.2253898 	 2006.7022 	 1.083 	 94.897
0.5630707 	 19.4638907 	 2227.0323 	 1.082 	 94.870
0.5646261 	 19.7032542 	 2493.6956 	 1.082 	 94.882
0.5661685 	 19.9446129 	 2874.4041 	 1.082 	 94.887
0.5676931 	 20.1979654 	 3327.7299 	 1.082 	 94.887
0.5692022 	 20.4524542 	 3882.8090 	 1.081 	 94.894
0.5706955 	 20.7085939 	 4660.6999 	 1.080 	 94.894
0.5721727 	 20.9720846 	 5612.9553 	 1.080 	 94.908
0.5736340 	 21.2353658 	 6880.1388 	 1.080 	 94.878
0.5750802 	 21.5080742 	 8586.1870 	 1.082 	 94.874
0.5765106 	 21.7887671 	 10590.5547 	 1.081 	 94.877
0.5779248 	 22.0800291 	 13158.7466 	 1.080 	 94.894
0.5793234 	 22.3697610 	 16346.8241 	 1.082 	 94.897
0.5807061 	 22.6643531 	 20163.0755 	 1.081 	 94.906
0.5820730 	 22.9752384 	 25435.7268 	 1.081 	 94.904
0.5834236 	 23.2971431 	 31461.1434 	 1.082 	 94.903
0.5847578 	 23.6274254 	 39120.1200 	 1.081 	 94.917
0.5860758 	 23.9606168 	 47759.7130 	 1.082 	 94.895
0.5873781 	 24.3110069 	 58059.7403 	 1.082 	 94.934
0.5886615 	 24.6615403 	 70251.3806 	 1.082 	 94.878
0.5899296 	 25.0440940 	 82328.2034 	 1.082 	 94.905
0.5911796 	 25.4336697 	 96333.9104 	 1.082 	 94.930
0.5924114 	 25.8247460 	 112547.3800 	 1.082 	 94.894
0.5936270 	 26.2343178 	 129344.4870 	 1.082 	 94.879
0.5948246 	 26.6420641 	 145721.0836 	 1.083 	 94.860
0.5960057 	 27.0612555 	 159990.0238 	 1.082 	 94.830
0.5971709 	 27.5060236 	 174279.3348 	 1.083 	 94.836
0.5983174 	 27.9577376 	 185801.5099 	 1.083 	 94.839
0.5994479 	 28.3972028 	 194504.8768 	 1.084 	 94.810
0.6005626 	 28.8537202 	 201579.4745 	 1.084 	 94.813
0.6016615 	 29.3090126 	 204150.2910 	 1.084 	 94.783
0.6027438 	 29.7810372 	 204735.3572 	 1.084 	 94.788
0.6038100 	 30.2293251 	 202651.9982 	 1.084 	 94.720
0.6048627 	 30.7015460 	 204949.4644 	 1.084 	 94.697
0.6059000 	 31.1655470 	 210161.1605 	 1.084 	 94.656
0.6069234 	 31.6209171 	 223569.2488 	 1.084 	 94.637
0.6079330 	 32.0858570 	 246469.9548 	 1.084 	 94.588
0.6089286 	 32.5563315 	 278857.9114 	 1.085 	 94.567
0.6099114 	 33.0276849 	 324339.3624 	 1.086 	 94.508
0.6108820 	 33.4893156 	 380591.2623 	 1.087 	 94.471
0.6118394 	 33.9696844 	 442196.4295 	 1.089 	 94.411
0.6127852 	 34.4631349 	 511617.8528 	 1.092 	 94.382
0.6137177 	 34.9719107 	 582691.0294 	 1.094 	 94.370
0.6146375 	 35.4800527 	 655242.9955 	 1.097 	 94.285
0.6155456 	 36.0338459 	 721958.3659 	 1.100 	 94.287
0.6164411 	 36.5864373 	 782780.9992 	 1.103 	 94.254
0.6173226 	 37.1782519 	 830058.8678 	 1.106 	 94.161
0.6181909 	 37.8159389 	 870048.1107 	 1.109 	 94.167
0.6190451 	 38.4695157 	 903059.1053 	 1.112 	 94.173
0.6198854 	 39.1505504 	 928931.8793 	 1.114 	 94.143
0.6207120 	 39.8356170 	 948272.4745 	 1.117 	 94.066
0.6215242 	 40.5757682 	 962617.8626 	 1.119 	 94.074
0.6223227 	 41.3333812 	 974075.2753 	 1.121 	 94.072
0.6231063 	 42.1162132 	 981424.4020 	 1.123 	 94.068
0.6238765 	 42.9182762 	 986788.0048 	 1.125 	 94.036
0.6246332 	 43.7450375 	 991455.8943 	 1.126 	 94.015
0.6253756 	 44.5870266 	 994283.7446 	 1.128 	 93.987
0.6261044 	 45.4597104 	 996398.6109 	 1.129 	 93.980
0.6268202 	 46.3587683 	 997358.4507 	 1.131 	 93.978
0.6275227 	 47.2483032 	 998205.1763 	 1.132 	 93.939
0.6282123 	 48.1914512 	 998628.6578 	 1.133 	 93.929
0.6288882 	 49.1413704 	 998974.3644 	 1.135 	 93.925
0.6295521 	 50.1101401 	 999610.0472 	 1.136 	 93.908
