N=100 	 R=1000000 	 s=1 	 Save [density, Z, rho_t, like/unlike, events per sweep]
0.0001348 	 1.0005139 	 1.1026 	 1.000 	 10.125
0.0132493 	 1.1627465 	 12.1803 	 0.951 	 46.755
0.0260712 	 1.1527986 	 22.9516 	 1.005 	 78.891
0.0384908 	 1.1918685 	 33.3330 	 1.014 	 88.239
0.0505078 	 1.2395178 	 44.0726 	 1.016 	 92.017
0.0621582 	 1.2920936 	 54.4427 	 1.018 	 93.804
0.0734563 	 1.3481697 	 65.0078 	 1.019 	 94.750
0.0844288 	 1.4076253 	 75.3024 	 1.020 	 95.240
0.0950679 	 1.4695966 	 85.9706 	 1.021 	 95.527
0.1054148 	 1.5337433 	 95.5537 	 1.023 	 95.651
0.1154530 	 1.6000696 	 106.4564 	 1.024 	 95.717
0.1252096 	 1.6684242 	 117.4857 	 1.024 	 95.804
0.1347017 	 1.7385648 	 127.8258 	 1.026 	 95.786
0.1439372 	 1.8100576 	 137.2049 	 1.027 	 95.872
0.1529350 	 1.8840139 	 148.7056 	 1.029 	 95.836
0.1616876 	 1.9596359 	 158.0039 	 1.030 	 95.845
0.1702174 	 2.0366602 	 168.7720 	 1.031 	 95.803
0.1785354 	 2.1156888 	 178.7991 	 1.032 	 95.775
0.1866443 	 2.1962067 	 188.0166 	 1.034 	 95.751
0.1945443 	 2.2781468 	 197.0597 	 1.034 	 95.740
0.2022561 	 2.3620015 	 206.7207 	 1.037 	 95.761
0.2097798 	 2.4470639 	 217.5132 	 1.037 	 95.708
0.2171304 	 2.5341480 	 227.1505 	 1.038 	 95.710
0.2243038 	 2.6226901 	 236.3318 	 1.040 	 95.654
0.2313141 	 2.7128339 	 247.1848 	 1.041 	 95.677
0.2381645 	 2.8040568 	 256.1894 	 1.042 	 95.663
0.2448622 	 2.8973161 	 266.6276 	 1.043 	 95.626
0.2514134 	 2.9926833 	 277.6595 	 1.044 	 95.628
0.2578166 	 3.0883684 	 287.9868 	 1.046 	 95.603
0.2640822 	 3.1862052 	 299.1359 	 1.046 	 95.589
0.2702112 	 3.2856226 	 311.2933 	 1.047 	 95.581
0.2762092 	 3.3862207 	 319.5163 	 1.049 	 95.591
0.2820844 	 3.4887884 	 331.8920 	 1.050 	 95.575
0.2878349 	 3.5925618 	 344.4947 	 1.051 	 95.545
0.2934767 	 3.6978370 	 354.7909 	 1.051 	 95.534
0.2990038 	 3.8048281 	 361.6847 	 1.053 	 95.517
0.3044127 	 3.9137428 	 370.6882 	 1.054 	 95.503
0.3097196 	 4.0229834 	 378.6961 	 1.054 	 95.482
0.3149220 	 4.1346593 	 389.7299 	 1.056 	 95.487
0.3200229 	 4.2473549 	 400.3744 	 1.057 	 95.457
0.3250307 	 4.3618854 	 412.3118 	 1.058 	 95.450
0.3299432 	 4.4783807 	 423.8294 	 1.059 	 95.465
0.3347643 	 4.5949138 	 433.4135 	 1.059 	 95.417
0.3394975 	 4.7140408 	 446.1796 	 1.061 	 95.408
0.3441425 	 4.8344938 	 457.1398 	 1.061 	 95.409
0.3487055 	 4.9556006 	 467.4600 	 1.063 	 95.409
0.3531876 	 5.0785005 	 476.6750 	 1.063 	 95.354
0.3575888 	 5.2035634 	 484.7886 	 1.064 	 95.383
0.3619162 	 5.3309794 	 495.1627 	 1.065 	 95.389
0.3661667 	 5.4573597 	 508.8100 	 1.065 	 95.350
0.3703446 	 5.5870039 	 518.8519 	 1.066 	 95.354
0.3744528 	 5.7166143 	 528.6047 	 1.067 	 95.331
0.3784897 	 5.8480279 	 537.2931 	 1.068 	 95.325
0.3824607 	 5.9826558 	 549.9637 	 1.069 	 95.317
0.3863686 	 6.1184323 	 561.1726 	 1.070 	 95.316
0.3902101 	 6.2547375 	 568.8078 	 1.071 	 95.326
0.3939921 	 6.3924313 	 579.3876 	 1.071 	 95.313
0.3977101 	 6.5290211 	 588.6800 	 1.072 	 95.250
0.4013693 	 6.6709632 	 594.7887 	 1.073 	 95.295
0.4049721 	 6.8114994 	 605.5098 	 1.073 	 95.235
0.4085173 	 6.9540060 	 618.6045 	 1.074 	 95.250
0.4120087 	 7.1002203 	 626.5628 	 1.073 	 95.269
0.4154484 	 7.2449111 	 633.4004 	 1.074 	 95.223
0.4188349 	 7.3913416 	 647.7809 	 1.077 	 95.220
0.4221682 	 7.5428275 	 659.7246 	 1.077 	 95.242
0.4254546 	 7.6883104 	 669.0034 	 1.077 	 95.184
0.4286902 	 7.8424006 	 683.1756 	 1.077 	 95.167
0.4318799 	 7.9948603 	 695.8756 	 1.078 	 95.197
0.4350236 	 8.1491250 	 702.8988 	 1.079 	 95.196
0.4381233 	 8.3062249 	 710.1860 	 1.079 	 95.168
0.4411750 	 8.4648246 	 724.6861 	 1.080 	 95.193
0.4441869 	 8.6199768 	 729.9778 	 1.080 	 95.168
0.4471544 	 8.7780801 	 741.0539 	 1.080 	 95.157
0.4500815 	 8.9425816 	 758.3337 	 1.081 	 95.175
0.4529652 	 9.1032722 	 764.6934 	 1.081 	 95.126
0.4558140 	 9.2657476 	 779.1831 	 1.082 	 95.123
0.4586208 	 9.4328343 	 782.3782 	 1.081 	 95.123
0.4613899 	 9.5986960 	 791.6075 	 1.082 	 95.144
0.4641231 	 9.7633192 	 799.3691 	 1.083 	 95.100
0.4668210 	 9.9347645 	 813.9558 	 1.083 	 95.118
0.4694813 	 10.1054053 	 820.4037 	 1.083 	 95.108
0.4721097 	 10.2777182 	 827.6828 	 1.083 	 95.093
0.4747043 	 10.4492273 	 834.5481 	 1.084 	 95.107
0.4772636 	 10.6225272 	 849.6411 	 1.084 	 95.119
0.4797917 	 10.7993225 	 863.9636 	 1.085 	 95.070
0.4822870 	 10.9781774 	 874.4066 	 1.085 	 95.086
0.4847501 	 11.1559763 	 884.9286 	 1.085 	 95.093
0.4871818 	 11.3366543 	 899.5621 	 1.085 	 95.082
0.4895853 	 11.5186000 	 910.8477 	 1.086 	 95.060
0.4919570 	 11.6996064 	 920.0859 	 1.086 	 95.066
0.4943022 	 11.8854369 	 929.9150 	 1.086 	 95.068
0.4966178 	 12.0703500 	 933.8447 	 1.086 	 95.066
0.4989072 	 12.2545715 	 941.4430 	 1.086 	 95.049
0.5011665 	 12.4411137 	 952.0128 	 1.086 	 95.045
0.5034004 	 12.6324652 	 961.6574 	 1.086 	 95.063
0.5056068 	 12.8237506 	 971.0796 	 1.086 	 95.040
0.5077864 	 13.0165852 	 977.5759 	 1.087 	 95.046
0.5099395 	 13.2096941 	 998.1440 	 1.087 	 95.021
0.5120704 	 13.4063828 	 1007.0453 	 1.087 	 95.008
0.5141759 	 13.5991132 	 1020.3248 	 1.088 	 95.004
0.5162568 	 13.8015379 	 1024.2329 	 1.087 	 95.015
0.5183126 	 13.9983425 	 1041.1415 	 1.088 	 95.010
0.5203472 	 14.2019457 	 1056.9827 	 1.089 	 94.979
0.5223580 	 14.4015444 	 1067.2571 	 1.088 	 95.006
0.5243483 	 14.6039132 	 1077.8981 	 1.088 	 94.988
0.5263140 	 14.8142705 	 1096.9016 	 1.089 	 94.981
0.5282575 	 15.0194953 	 1114.1620 	 1.089 	 94.978
0.5301798 	 15.2240230 	 1121.3207 	 1.088 	 94.979
0.5320814 	 15.4315590 	 1127.0539 	 1.088 	 94.971
0.5339628 	 15.6446075 	 1142.9861 	 1.087 	 94.954
0.5358221 	 15.8563541 	 1153.6935 	 1.087 	 94.970
0.5376626 	 16.0710447 	 1167.2743 	 1.087 	 94.938
0.5394833 	 16.2826083 	 1178.6283 	 1.087 	 94.952
0.5412843 	 16.5010928 	 1200.6075 	 1.087 	 94.950
0.5430662 	 16.7191720 	 1217.1291 	 1.086 	 94.941
0.5448281 	 16.9437690 	 1241.5070 	 1.086 	 94.921
0.5465725 	 17.1564247 	 1252.4685 	 1.086 	 94.909
0.5482993 	 17.3858815 	 1271.8754 	 1.086 	 94.938
0.5500079 	 17.6066935 	 1308.7766 	 1.085 	 94.920
0.5516979 	 17.8378639 	 1336.2535 	 1.086 	 94.906
0.5533693 	 18.0625680 	 1368.7573 	 1.086 	 94.904
0.5550249 	 18.2969312 	 1406.8222 	 1.086 	 94.920
0.5566620 	 18.5314832 	 1444.4595 	 1.086 	 94.921
0.5582832 	 18.7650019 	 1501.9739 	 1.085 	 94.906
0.5598860 	 19.0039455 	 1581.1252 	 1.086 	 94.895
0.5614737 	 19.2389142 	 1665.6470 	 1.086 	 94.889
0.5630432 	 19.4806123 	 1788.4488 	 1.087 	 94.855
0.5645987 	 19.7254060 	 1962.7594 	 1.088 	 94.868
0.5661403 	 19.9708010 	 2226.0533 	 1.089 	 94.845
0.5676626 	 20.2253384 	 2544.7621 	 1.090 	 94.862
0.5691693 	 20.4811002 	 3017.5562 	 1.091 	 94.866
0.5706600 	 20.7385815 	 3679.0787 	 1.093 	 94.840
0.5721353 	 21.0047794 	 4629.0549 	 1.094 	 94.855
0.5735936 	 21.2770012 	 5830.8019 	 1.096 	 94.834
0.5750373 	 21.5440980 	 7682.4752 	 1.098 	 94.832
0.5764645 	 21.8235229 	 9640.3819 	 1.100 	 94.796
0.5778766 	 22.1128520 	 12481.5813 	 1.103 	 94.812
0.5792719 	 22.4060836 	 15948.0983 	 1.106 	 94.813
0.5806518 	 22.7140829 	 20162.2432 	 1.109 	 94.831
0.5820161 	 23.0167800 	 24704.1623 	 1.112 	 94.799
0.5833639 	 23.3359875 	 29728.4705 	 1.115 	 94.818
0.5846961 	 23.6567386 	 35359.0148 	 1.118 	 94.806
0.5860122 	 23.9919398 	 40941.9768 	 1.119 	 94.793
0.5873100 	 24.3417913 	 46826.5398 	 1.122 	 94.812
0.5885922 	 24.6836394 	 52924.8991 	 1.123 	 94.788
0.5898595 	 25.0491295 	 58876.2092 	 1.125 	 94.792
0.5911101 	 25.4074775 	 65360.9832 	 1.126 	 94.720
0.5923432 	 25.7926788 	 71307.5683 	 1.126 	 94.773
0.5935617 	 26.1715767 	 77661.3595 	 1.126 	 94.764
0.5947627 	 26.5765888 	 83890.6295 	 1.127 	 94.754
0.5959480 	 26.9857329 	 90485.2091 	 1.126 	 94.761
0.5971169 	 27.4156099 	 95637.0390 	 1.126 	 94.742
0.5982677 	 27.8513627 	 101410.9146 	 1.125 	 94.758
0.5994029 	 28.2890279 	 107845.2136 	 1.123 	 94.729
0.6005212 	 28.7522663 	 114070.9752 	 1.121 	 94.712
0.6016228 	 29.2324937 	 120573.3246 	 1.119 	 94.719
0.6027076 	 29.7176331 	 126874.9730 	 1.118 	 94.677
0.6037758 	 30.2264268 	 133461.1440 	 1.115 	 94.683
0.6048264 	 30.7403549 	 138226.4293 	 1.112 	 94.712
0.6058607 	 31.2584245 	 142304.9592 	 1.110 	 94.642
0.6068797 	 31.8065531 	 146898.1414 	 1.107 	 94.670
0.6078816 	 32.3689764 	 150460.6648 	 1.105 	 94.687
0.6088674 	 32.9370254 	 154786.6094 	 1.104 	 94.674
0.6098376 	 33.5201564 	 157463.9958 	 1.102 	 94.614
0.6107921 	 34.1173136 	 160664.2585 	 1.100 	 94.629
0.6117299 	 34.7373295 	 161766.9699 	 1.099 	 94.631
0.6126516 	 35.3547390 	 162753.9468 	 1.098 	 94.621
0.6135585 	 35.9965069 	 164156.0905 	 1.098 	 94.606
0.6144501 	 36.6413888 	 164605.4095 	 1.096 	 94.607
0.6153265 	 37.2892384 	 165567.1121 	 1.096 	 94.584
0.6161887 	 37.9829096 	 166538.6032 	 1.096 	 94.614
0.6170366 	 38.6491625 	 166518.6239 	 1.095 	 94.607
0.6178705 	 39.3461175 	 167149.0393 	 1.096 	 94.632
0.6186909 	 40.0382657 	 170515.9402 	 1.096 	 94.634
0.6194978 	 40.7430279 	 176659.7409 	 1.097 	 94.651
0.6202909 	 41.4500396 	 187412.7527 	 1.098 	 94.651
0.6210706 	 42.1458650 	 204786.3730 	 1.098 	 94.683
0.6218390 	 42.8610156 	 228191.2905 	 1.099 	 94.701
0.6225952 	 43.5748798 	 258467.0212 	 1.099 	 94.745
0.6233400 	 44.3152430 	 300777.1794 	 1.099 	 94.798
0.6240728 	 45.0419330 	 348877.9182 	 1.100 	 94.812
0.6247940 	 45.7767298 	 411012.9159 	 1.100 	 94.832
0.6255039 	 46.5516319 	 479215.6914 	 1.100 	 94.916
0.6262030 	 47.3378845 	 546830.2352 	 1.099 	 94.926
0.6268905 	 48.1798893 	 609356.7708 	 1.100 	 94.980
0.6275672 	 49.0415698 	 669413.2617 	 1.100 	 95.016
0.6282318 	 49.9332685 	 723660.0852 	 1.099 	 95.036
0.6288851 	 50.8441981 	 773435.5112 	 1.100 	 95.061
0.6295267 	 51.7976617 	 812767.4508 	 1.099 	 95.051
