N=100 	 R=1000000 	 s=1 	 Save [density, Z, rho_t, like/unlike, events per sweep]
0.0001349 	 1.0005123 	 1.1026 	 1.003 	 10.125
0.0132557 	 1.1626759 	 12.2211 	 0.950 	 46.811
0.0260849 	 1.1528196 	 22.8766 	 1.004 	 78.942
0.0385048 	 1.1919303 	 33.5086 	 1.013 	 88.278
0.0505090 	 1.2395687 	 44.0905 	 1.016 	 92.012
0.0621659 	 1.2921432 	 54.4255 	 1.017 	 93.802
0.0734587 	 1.3481439 	 64.8832 	 1.019 	 94.765
0.0844180 	 1.4075034 	 74.9019 	 1.020 	 95.217
0.0950594 	 1.4695327 	 85.3543 	 1.021 	 95.518
0.1053910 	 1.5337796 	 96.0081 	 1.022 	 95.691
0.1154343 	 1.5998103 	 106.8069 	 1.024 	 95.745
0.1252019 	 1.6684569 	 116.8705 	 1.025 	 95.816
0.1346969 	 1.7384869 	 126.9279 	 1.026 	 95.827
0.1439362 	 1.8101584 	 138.1510 	 1.027 	 95.879
0.1529311 	 1.8838267 	 150.1920 	 1.029 	 95.862
0.1616895 	 1.9598638 	 159.7667 	 1.030 	 95.848
0.1702152 	 2.0368790 	 169.8859 	 1.031 	 95.814
0.1785301 	 2.1158602 	 180.9956 	 1.032 	 95.799
0.1866411 	 2.1962206 	 192.1929 	 1.034 	 95.774
0.1945423 	 2.2783130 	 204.0370 	 1.035 	 95.767
0.2022526 	 2.3622801 	 214.0386 	 1.036 	 95.777
0.2097797 	 2.4472419 	 227.4581 	 1.037 	 95.723
0.2171247 	 2.5342482 	 239.1823 	 1.038 	 95.712
0.2242969 	 2.6222021 	 249.8285 	 1.040 	 95.670
0.2313061 	 2.7126273 	 259.8054 	 1.041 	 95.673
0.2381554 	 2.8042257 	 271.5697 	 1.042 	 95.657
0.2448471 	 2.8976223 	 281.0191 	 1.043 	 95.695
0.2513954 	 2.9918656 	 290.8602 	 1.044 	 95.608
0.2578002 	 3.0879562 	 303.9175 	 1.045 	 95.599
0.2640671 	 3.1856892 	 313.3443 	 1.046 	 95.591
0.2701962 	 3.2854988 	 323.4947 	 1.048 	 95.570
0.2761955 	 3.3859776 	 333.4753 	 1.049 	 95.559
0.2820691 	 3.4886282 	 342.7788 	 1.049 	 95.564
0.2878234 	 3.5919245 	 352.2507 	 1.051 	 95.510
0.2934603 	 3.6978945 	 363.2382 	 1.052 	 95.537
0.2989837 	 3.8046797 	 371.4815 	 1.053 	 95.522
0.3044034 	 3.9136884 	 379.3142 	 1.054 	 95.524
0.3097092 	 4.0230513 	 388.5728 	 1.055 	 95.501
0.3149151 	 4.1343257 	 398.8676 	 1.056 	 95.492
0.3200159 	 4.2486686 	 407.4376 	 1.057 	 95.494
0.3250269 	 4.3625225 	 415.6172 	 1.058 	 95.469
0.3299378 	 4.4776682 	 426.6722 	 1.059 	 95.441
0.3347576 	 4.5946630 	 437.1331 	 1.060 	 95.432
0.3394870 	 4.7147504 	 446.6044 	 1.061 	 95.434
0.3441353 	 4.8343985 	 457.5784 	 1.061 	 95.415
0.3486992 	 4.9558195 	 467.4822 	 1.062 	 95.416
0.3531819 	 5.0797050 	 479.4811 	 1.063 	 95.404
0.3575832 	 5.2042210 	 494.2772 	 1.064 	 95.378
0.3619092 	 5.3291489 	 505.4370 	 1.065 	 95.354
0.3661611 	 5.4572344 	 512.7240 	 1.066 	 95.351
0.3703366 	 5.5866193 	 521.6958 	 1.067 	 95.347
0.3744473 	 5.7179425 	 533.8319 	 1.067 	 95.355
0.3784859 	 5.8494027 	 549.2854 	 1.068 	 95.321
0.3824571 	 5.9822185 	 562.4220 	 1.069 	 95.331
0.3863626 	 6.1181314 	 578.7227 	 1.069 	 95.333
0.3902028 	 6.2534032 	 584.3366 	 1.070 	 95.301
0.3939826 	 6.3898074 	 589.6101 	 1.070 	 95.279
0.3977030 	 6.5292765 	 599.7276 	 1.072 	 95.280
0.4013610 	 6.6709561 	 610.6676 	 1.072 	 95.286
0.4049650 	 6.8119549 	 613.1456 	 1.073 	 95.271
0.4085102 	 6.9552619 	 623.8711 	 1.074 	 95.277
0.4120022 	 7.1000040 	 634.2470 	 1.075 	 95.265
0.4154395 	 7.2446659 	 641.5741 	 1.074 	 95.254
0.4188243 	 7.3928442 	 650.3496 	 1.075 	 95.210
0.4221616 	 7.5413982 	 659.6367 	 1.075 	 95.224
0.4254472 	 7.6932702 	 664.2094 	 1.077 	 95.240
0.4286884 	 7.8420698 	 673.6394 	 1.077 	 95.213
0.4318794 	 7.9964386 	 687.3980 	 1.078 	 95.220
0.4350205 	 8.1499574 	 697.8972 	 1.078 	 95.179
0.4381205 	 8.3065472 	 701.8200 	 1.079 	 95.181
0.4411744 	 8.4638928 	 710.4115 	 1.079 	 95.194
0.4441844 	 8.6195753 	 721.1161 	 1.079 	 95.144
0.4471499 	 8.7790663 	 731.0617 	 1.080 	 95.173
0.4500748 	 8.9409011 	 739.6677 	 1.082 	 95.141
0.4529624 	 9.1033212 	 746.8526 	 1.082 	 95.162
0.4558095 	 9.2657664 	 754.1650 	 1.081 	 95.140
0.4586178 	 9.4320772 	 760.0567 	 1.082 	 95.140
0.4613916 	 9.5981707 	 770.5748 	 1.082 	 95.143
0.4641263 	 9.7671206 	 779.7016 	 1.082 	 95.110
0.4668228 	 9.9351879 	 790.4800 	 1.083 	 95.126
0.4694861 	 10.1051887 	 801.3930 	 1.083 	 95.113
0.4721144 	 10.2766290 	 811.0372 	 1.083 	 95.083
0.4747081 	 10.4495223 	 819.5727 	 1.084 	 95.082
0.4772672 	 10.6267176 	 823.4946 	 1.084 	 95.111
0.4797932 	 10.8014656 	 837.5530 	 1.084 	 95.114
0.4822886 	 10.9799349 	 854.0019 	 1.085 	 95.097
0.4847512 	 11.1544383 	 865.8173 	 1.085 	 95.084
0.4871846 	 11.3332956 	 872.1192 	 1.085 	 95.028
0.4895886 	 11.5208486 	 882.2113 	 1.085 	 95.079
0.4919619 	 11.6983706 	 885.3845 	 1.085 	 95.052
0.4943048 	 11.8841003 	 896.0203 	 1.086 	 95.044
0.4966201 	 12.0696526 	 900.7019 	 1.086 	 95.083
0.4989052 	 12.2566547 	 915.1540 	 1.087 	 95.056
0.5011652 	 12.4442781 	 929.9533 	 1.087 	 95.046
0.5033987 	 12.6333572 	 937.1609 	 1.087 	 95.051
0.5056055 	 12.8264449 	 949.3060 	 1.088 	 95.055
0.5077861 	 13.0158068 	 964.7154 	 1.088 	 95.041
0.5099414 	 13.2056478 	 976.8335 	 1.088 	 95.019
0.5120712 	 13.4056347 	 984.9230 	 1.088 	 95.019
0.5141771 	 13.5982254 	 993.5947 	 1.088 	 95.007
0.5162563 	 13.7965417 	 1009.7316 	 1.088 	 95.023
0.5183144 	 13.9953045 	 1020.4152 	 1.087 	 95.003
0.5203472 	 14.1989434 	 1025.1665 	 1.089 	 94.990
0.5223578 	 14.4014230 	 1028.7249 	 1.088 	 95.021
0.5243460 	 14.6079046 	 1033.6129 	 1.088 	 95.000
0.5263126 	 14.8090117 	 1048.8662 	 1.088 	 94.987
0.5282570 	 15.0188753 	 1052.2552 	 1.088 	 94.994
0.5301789 	 15.2257810 	 1061.2201 	 1.087 	 94.967
0.5320809 	 15.4385321 	 1065.7361 	 1.087 	 94.986
0.5339604 	 15.6487899 	 1077.2081 	 1.089 	 94.968
0.5358205 	 15.8587722 	 1085.4241 	 1.089 	 94.973
0.5376599 	 16.0724690 	 1100.8637 	 1.088 	 94.959
0.5394787 	 16.2847701 	 1111.0181 	 1.088 	 94.938
0.5412785 	 16.5032782 	 1134.0540 	 1.088 	 94.964
0.5430606 	 16.7161001 	 1154.7041 	 1.088 	 94.937
0.5448231 	 16.9411995 	 1176.0577 	 1.088 	 94.963
0.5465667 	 17.1537392 	 1204.4898 	 1.087 	 94.924
0.5482933 	 17.3780975 	 1230.0482 	 1.087 	 94.923
0.5500013 	 17.6055139 	 1264.3895 	 1.087 	 94.906
0.5516906 	 17.8326547 	 1298.5537 	 1.086 	 94.925
0.5533638 	 18.0530973 	 1344.0611 	 1.086 	 94.913
0.5550185 	 18.2886922 	 1412.2539 	 1.087 	 94.915
0.5566572 	 18.5097518 	 1483.2101 	 1.086 	 94.915
0.5582796 	 18.7461866 	 1560.8786 	 1.085 	 94.910
0.5598848 	 18.9757803 	 1677.4627 	 1.085 	 94.889
0.5614730 	 19.2133856 	 1842.6996 	 1.084 	 94.894
0.5630474 	 19.4442995 	 2086.1903 	 1.084 	 94.895
0.5646048 	 19.6754327 	 2381.3061 	 1.084 	 94.879
0.5661487 	 19.9093501 	 2822.4824 	 1.084 	 94.889
0.5676765 	 20.1402101 	 3564.7604 	 1.082 	 94.882
0.5691912 	 20.3707983 	 4654.6391 	 1.081 	 94.847
0.5706913 	 20.6006790 	 6575.7091 	 1.079 	 94.844
0.5721780 	 20.8273865 	 9550.7527 	 1.077 	 94.859
0.5736507 	 21.0705441 	 13980.0386 	 1.073 	 94.869
0.5751108 	 21.2882341 	 20953.2231 	 1.068 	 94.823
0.5765569 	 21.5203557 	 31002.6191 	 1.063 	 94.821
0.5779917 	 21.7527887 	 45568.1712 	 1.057 	 94.847
0.5794127 	 21.9996661 	 65047.3799 	 1.049 	 94.812
0.5808212 	 22.2535681 	 89971.8031 	 1.041 	 94.798
0.5822154 	 22.5249044 	 119879.4715 	 1.032 	 94.828
0.5835954 	 22.8105359 	 153398.5990 	 1.023 	 94.786
0.5849605 	 23.1272601 	 190910.9991 	 1.014 	 94.839
0.5863077 	 23.4526487 	 231024.1116 	 1.005 	 94.830
0.5876388 	 23.7981069 	 269177.4487 	 0.999 	 94.797
0.5889517 	 24.1592383 	 310970.9037 	 0.991 	 94.801
0.5902472 	 24.5481716 	 350510.6435 	 0.984 	 94.824
0.5915243 	 24.9419294 	 391484.1201 	 0.977 	 94.818
0.5927824 	 25.3464756 	 432231.2797 	 0.971 	 94.792
0.5940222 	 25.7732779 	 468109.7343 	 0.966 	 94.807
0.5952442 	 26.2134638 	 502355.9931 	 0.962 	 94.803
0.5964456 	 26.6576922 	 538438.1682 	 0.958 	 94.773
0.5976289 	 27.1227088 	 567213.2120 	 0.954 	 94.779
0.5987939 	 27.5883768 	 593808.6347 	 0.951 	 94.788
0.5999398 	 28.0830317 	 615891.2782 	 0.949 	 94.792
0.6010670 	 28.5788486 	 632475.6684 	 0.947 	 94.791
0.6021756 	 29.0901509 	 643850.2784 	 0.946 	 94.778
0.6032661 	 29.6123059 	 652289.6441 	 0.945 	 94.780
0.6043384 	 30.1527916 	 662882.2247 	 0.945 	 94.772
0.6053929 	 30.6819383 	 661133.1561 	 0.945 	 94.791
0.6064303 	 31.2414943 	 659450.3698 	 0.946 	 94.780
0.6074506 	 31.7967819 	 653512.9599 	 0.946 	 94.754
0.6084536 	 32.3795483 	 643114.7020 	 0.948 	 94.778
0.6094402 	 32.9781168 	 630869.7265 	 0.950 	 94.792
0.6104095 	 33.5560699 	 613718.1521 	 0.953 	 94.753
0.6113626 	 34.1729006 	 595602.9399 	 0.955 	 94.765
0.6122994 	 34.7899114 	 577468.3440 	 0.958 	 94.774
0.6132215 	 35.4236744 	 556090.8337 	 0.962 	 94.744
0.6141269 	 36.0637026 	 535835.6789 	 0.966 	 94.764
0.6150173 	 36.7165529 	 518790.1311 	 0.969 	 94.756
0.6158933 	 37.3832251 	 502706.9912 	 0.973 	 94.791
0.6167545 	 38.0719443 	 489967.0777 	 0.977 	 94.774
0.6176001 	 38.7679017 	 480844.4971 	 0.980 	 94.799
0.6184313 	 39.4913343 	 474702.6845 	 0.985 	 94.823
0.6192485 	 40.2048674 	 471654.8477 	 0.989 	 94.820
0.6200508 	 40.9583881 	 473110.2550 	 0.993 	 94.857
0.6208400 	 41.7148125 	 477693.1692 	 0.998 	 94.848
0.6216152 	 42.4904360 	 486627.8191 	 1.001 	 94.851
0.6223771 	 43.2797772 	 497534.7811 	 1.005 	 94.890
0.6231255 	 44.0848775 	 511213.5601 	 1.009 	 94.884
0.6238608 	 44.9081345 	 528786.9207 	 1.013 	 94.918
0.6245830 	 45.7759766 	 548119.2893 	 1.017 	 94.946
0.6252924 	 46.6258241 	 571934.9241 	 1.020 	 94.963
0.6259892 	 47.4728311 	 600887.1119 	 1.024 	 94.920
0.6266742 	 48.3732703 	 628791.1586 	 1.027 	 94.953
0.6273467 	 49.2749050 	 653350.2376 	 1.029 	 94.976
0.6280077 	 50.2202889 	 678064.7919 	 1.031 	 95.037
0.6286564 	 51.1806611 	 704816.9349 	 1.034 	 95.019
0.6292936 	 52.1438444 	 731709.8395 	 1.036 	 95.034
0.6299190 	 53.1371166 	 756762.6190 	 1.037 	 95.102
