N=100 	 R=1000000 	 s=1 	 Save [density, Z, rho_t, like/unlike, events per sweep]
0.0001343 	 1.0005099 	 1.1026 	 1.001 	 10.124
0.0132563 	 1.1625869 	 12.2813 	 0.950 	 46.817
0.0260892 	 1.1528163 	 23.0431 	 1.005 	 78.923
0.0385033 	 1.1918498 	 33.5904 	 1.013 	 88.265
0.0505152 	 1.2395385 	 44.2459 	 1.016 	 91.987
0.0621638 	 1.2921728 	 54.7457 	 1.018 	 93.813
0.0734677 	 1.3482716 	 64.8508 	 1.019 	 94.774
0.0844300 	 1.4077173 	 75.6614 	 1.020 	 95.261
0.0950740 	 1.4694968 	 86.1052 	 1.021 	 95.474
0.1054045 	 1.5336946 	 96.4181 	 1.023 	 95.657
0.1154515 	 1.6000013 	 107.5843 	 1.023 	 95.744
0.1252092 	 1.6685079 	 117.6539 	 1.025 	 95.804
0.1347031 	 1.7385738 	 127.9266 	 1.026 	 95.822
0.1439441 	 1.8100837 	 138.9079 	 1.027 	 95.870
0.1529342 	 1.8842039 	 148.9969 	 1.029 	 95.865
0.1616936 	 1.9596462 	 158.8370 	 1.029 	 95.821
0.1702213 	 2.0368458 	 169.7522 	 1.031 	 95.801
0.1785371 	 2.1156920 	 179.8056 	 1.032 	 95.773
0.1866437 	 2.1960398 	 190.3277 	 1.033 	 95.769
0.1945550 	 2.2783224 	 201.0889 	 1.035 	 95.773
0.2022627 	 2.3623333 	 212.3926 	 1.036 	 95.753
0.2097802 	 2.4471222 	 222.6086 	 1.037 	 95.704
0.2171310 	 2.5343738 	 232.3814 	 1.038 	 95.736
0.2243034 	 2.6225067 	 243.0483 	 1.040 	 95.660
0.2313132 	 2.7126203 	 253.2465 	 1.040 	 95.650
0.2381620 	 2.8042576 	 262.8199 	 1.042 	 95.645
0.2448543 	 2.8966360 	 272.1262 	 1.043 	 95.605
0.2514040 	 2.9919688 	 282.0063 	 1.045 	 95.618
0.2578033 	 3.0884336 	 291.5570 	 1.046 	 95.604
0.2640653 	 3.1853530 	 301.8851 	 1.046 	 95.579
0.2701926 	 3.2856165 	 310.7707 	 1.047 	 95.575
0.2761981 	 3.3859844 	 323.1286 	 1.049 	 95.578
0.2820730 	 3.4887084 	 334.1726 	 1.050 	 95.553
0.2878283 	 3.5920642 	 345.1926 	 1.050 	 95.540
0.2934682 	 3.6981495 	 353.1955 	 1.052 	 95.562
0.2989957 	 3.8050095 	 363.5171 	 1.053 	 95.535
0.3044075 	 3.9142090 	 373.1439 	 1.054 	 95.541
0.3097163 	 4.0235779 	 382.9753 	 1.055 	 95.513
0.3149192 	 4.1340616 	 393.7349 	 1.056 	 95.459
0.3200211 	 4.2468115 	 406.0438 	 1.057 	 95.449
0.3250270 	 4.3614869 	 414.9551 	 1.057 	 95.446
0.3299398 	 4.4771139 	 424.8117 	 1.059 	 95.441
0.3347594 	 4.5949792 	 435.4511 	 1.060 	 95.436
0.3394867 	 4.7130034 	 447.7791 	 1.061 	 95.395
0.3441288 	 4.8351851 	 458.8172 	 1.062 	 95.445
0.3486936 	 4.9558775 	 468.7598 	 1.062 	 95.384
0.3531766 	 5.0785812 	 477.8985 	 1.064 	 95.353
0.3575796 	 5.2036289 	 487.4648 	 1.064 	 95.378
0.3619039 	 5.3308534 	 499.4931 	 1.065 	 95.383
0.3661558 	 5.4585688 	 509.3288 	 1.066 	 95.370
0.3703299 	 5.5867664 	 521.5168 	 1.067 	 95.342
0.3744364 	 5.7165588 	 532.5210 	 1.068 	 95.328
0.3784739 	 5.8487267 	 543.4411 	 1.068 	 95.326
0.3824452 	 5.9826394 	 553.9774 	 1.069 	 95.323
0.3863503 	 6.1172597 	 566.4110 	 1.070 	 95.331
0.3901926 	 6.2515070 	 574.3251 	 1.070 	 95.256
0.3939731 	 6.3912778 	 583.4134 	 1.071 	 95.305
0.3976897 	 6.5301580 	 595.5171 	 1.071 	 95.281
0.4013487 	 6.6700441 	 608.8115 	 1.072 	 95.283
0.4049559 	 6.8121488 	 617.5950 	 1.073 	 95.276
0.4085013 	 6.9554569 	 628.6339 	 1.074 	 95.244
0.4119912 	 7.0991996 	 640.5522 	 1.074 	 95.248
0.4154296 	 7.2444977 	 650.4019 	 1.075 	 95.238
0.4188149 	 7.3937097 	 664.4567 	 1.075 	 95.241
0.4221509 	 7.5408449 	 672.5366 	 1.076 	 95.223
0.4254368 	 7.6912160 	 677.1580 	 1.076 	 95.225
0.4286754 	 7.8427048 	 684.4244 	 1.078 	 95.219
0.4318646 	 7.9938209 	 694.4223 	 1.077 	 95.198
0.4350096 	 8.1524533 	 709.8209 	 1.078 	 95.238
0.4381071 	 8.3060622 	 713.7479 	 1.079 	 95.194
0.4411622 	 8.4614515 	 728.5339 	 1.080 	 95.188
0.4441693 	 8.6183358 	 739.2930 	 1.079 	 95.164
0.4471383 	 8.7821015 	 752.3482 	 1.080 	 95.167
0.4500645 	 8.9415091 	 766.0840 	 1.081 	 95.165
0.4529519 	 9.1026220 	 774.8056 	 1.081 	 95.155
0.4557987 	 9.2655580 	 785.9108 	 1.081 	 95.129
0.4586076 	 9.4334912 	 800.6287 	 1.081 	 95.181
0.4613780 	 9.5996007 	 811.4694 	 1.081 	 95.126
0.4641130 	 9.7700002 	 822.6822 	 1.082 	 95.163
0.4668083 	 9.9347560 	 826.5006 	 1.084 	 95.119
0.4694682 	 10.1068862 	 841.2186 	 1.084 	 95.119
0.4720974 	 10.2769515 	 855.4804 	 1.083 	 95.121
0.4746908 	 10.4485017 	 860.2546 	 1.084 	 95.106
0.4772507 	 10.6284174 	 865.9387 	 1.084 	 95.102
0.4797786 	 10.7992803 	 873.6033 	 1.084 	 95.081
0.4822726 	 10.9772946 	 888.8030 	 1.084 	 95.089
0.4847363 	 11.1516816 	 891.8187 	 1.084 	 95.064
0.4871682 	 11.3331091 	 895.4855 	 1.084 	 95.044
0.4895700 	 11.5174959 	 904.0480 	 1.085 	 95.084
0.4919436 	 11.7017063 	 915.2983 	 1.086 	 95.089
0.4942878 	 11.8822630 	 924.4433 	 1.086 	 95.047
0.4966033 	 12.0674282 	 933.5480 	 1.085 	 95.051
0.4988898 	 12.2559316 	 942.5260 	 1.085 	 95.059
0.5011506 	 12.4449437 	 955.4103 	 1.087 	 95.040
0.5033835 	 12.6342405 	 959.4402 	 1.086 	 95.053
0.5055876 	 12.8183979 	 973.7166 	 1.087 	 95.006
0.5077686 	 13.0136873 	 982.6712 	 1.087 	 95.035
0.5099241 	 13.2111728 	 988.2878 	 1.087 	 95.049
0.5120525 	 13.4016267 	 1005.1646 	 1.087 	 95.007
0.5141587 	 13.6001447 	 1017.8668 	 1.086 	 95.047
0.5162397 	 13.7994690 	 1030.7143 	 1.087 	 95.034
0.5182978 	 13.9982144 	 1038.9213 	 1.088 	 95.010
0.5203316 	 14.1988935 	 1047.1676 	 1.087 	 95.024
0.5223418 	 14.4003374 	 1053.9035 	 1.087 	 94.999
0.5243307 	 14.6012184 	 1064.1151 	 1.087 	 94.978
0.5262970 	 14.8085078 	 1064.3411 	 1.088 	 94.967
0.5282417 	 15.0125970 	 1071.9468 	 1.087 	 94.991
0.5301641 	 15.2210132 	 1090.5078 	 1.087 	 94.960
0.5320659 	 15.4335909 	 1099.4134 	 1.087 	 95.001
0.5339485 	 15.6379809 	 1106.1434 	 1.088 	 94.975
0.5358093 	 15.8518570 	 1112.8479 	 1.088 	 94.969
0.5376490 	 16.0630414 	 1131.7378 	 1.089 	 94.931
0.5394694 	 16.2821068 	 1137.8439 	 1.088 	 94.940
0.5412705 	 16.5029070 	 1155.6077 	 1.088 	 94.968
0.5430527 	 16.7222270 	 1169.5641 	 1.088 	 94.922
0.5448146 	 16.9418026 	 1189.7436 	 1.088 	 94.921
0.5465584 	 17.1586079 	 1224.4311 	 1.088 	 94.908
0.5482854 	 17.3841836 	 1235.7981 	 1.088 	 94.890
0.5499919 	 17.6096264 	 1256.6830 	 1.088 	 94.917
0.5516805 	 17.8430723 	 1317.9309 	 1.088 	 94.928
0.5533521 	 18.0711212 	 1374.1479 	 1.088 	 94.916
0.5550060 	 18.2911563 	 1448.9321 	 1.087 	 94.892
0.5566426 	 18.5207030 	 1577.1534 	 1.087 	 94.900
0.5582635 	 18.7571460 	 1760.4004 	 1.088 	 94.893
0.5598687 	 18.9916772 	 2070.0704 	 1.090 	 94.889
0.5614570 	 19.2255501 	 2517.0683 	 1.090 	 94.915
0.5630285 	 19.4568513 	 3369.2665 	 1.091 	 94.902
0.5645858 	 19.6888764 	 4680.0243 	 1.093 	 94.889
0.5661280 	 19.9200462 	 6980.2038 	 1.095 	 94.875
0.5676553 	 20.1465307 	 10896.5707 	 1.097 	 94.879
0.5691688 	 20.3725467 	 17099.7590 	 1.100 	 94.888
0.5706682 	 20.6039017 	 26421.3661 	 1.104 	 94.887
0.5721541 	 20.8273925 	 39979.8186 	 1.109 	 94.883
0.5736278 	 21.0618993 	 59289.2701 	 1.114 	 94.887
0.5750885 	 21.3023400 	 85689.0546 	 1.121 	 94.908
0.5765340 	 21.5463151 	 119838.9714 	 1.128 	 94.913
0.5779664 	 21.7932151 	 161112.1071 	 1.134 	 94.932
0.5793852 	 22.0533522 	 208638.3879 	 1.142 	 94.915
0.5807880 	 22.3401987 	 258588.1249 	 1.149 	 94.930
0.5821766 	 22.6376217 	 312766.1810 	 1.156 	 94.978
0.5835494 	 22.9370891 	 367913.2909 	 1.162 	 94.992
0.5849055 	 23.2630016 	 425515.7401 	 1.170 	 94.989
0.5862446 	 23.6009477 	 479842.8223 	 1.175 	 94.983
0.5875660 	 23.9603067 	 528974.6102 	 1.182 	 95.006
0.5888705 	 24.3283772 	 579128.1548 	 1.188 	 95.019
0.5901560 	 24.7078149 	 625566.0452 	 1.194 	 95.034
0.5914235 	 25.1055440 	 667382.7198 	 1.199 	 95.036
0.5926724 	 25.5040294 	 704802.6283 	 1.204 	 95.045
0.5939033 	 25.9193918 	 742963.5301 	 1.209 	 95.057
0.5951174 	 26.3421604 	 769669.0624 	 1.212 	 95.006
0.5963124 	 26.7849232 	 795387.7353 	 1.217 	 95.028
0.5974892 	 27.2329248 	 816307.9262 	 1.220 	 95.044
0.5986484 	 27.6929199 	 837625.0226 	 1.224 	 95.040
0.5997893 	 28.1720497 	 852982.9615 	 1.227 	 95.028
0.6009129 	 28.6664724 	 864664.9450 	 1.230 	 95.063
0.6020177 	 29.1660324 	 874880.0118 	 1.232 	 95.051
0.6031054 	 29.6786388 	 883178.0537 	 1.234 	 95.035
0.6041752 	 30.2058046 	 888541.5889 	 1.236 	 95.011
0.6052271 	 30.7481089 	 890912.2378 	 1.238 	 95.020
0.6062613 	 31.3052083 	 891059.4619 	 1.238 	 95.046
0.6072781 	 31.8690709 	 891053.6374 	 1.240 	 94.991
0.6082785 	 32.4502156 	 886027.4026 	 1.240 	 94.996
0.6092615 	 33.0474602 	 881533.9031 	 1.240 	 94.960
0.6102284 	 33.6581859 	 875015.5895 	 1.241 	 94.960
0.6111788 	 34.2861816 	 863048.7710 	 1.241 	 94.916
0.6121125 	 34.9326150 	 853489.0004 	 1.241 	 94.947
0.6130304 	 35.5855485 	 837960.4055 	 1.240 	 94.931
0.6139312 	 36.2460285 	 820893.4192 	 1.238 	 94.903
0.6148169 	 36.9222084 	 800792.6626 	 1.236 	 94.886
0.6156875 	 37.6078655 	 781233.5352 	 1.234 	 94.862
0.6165426 	 38.3209727 	 756627.7068 	 1.232 	 94.871
0.6173831 	 39.0421951 	 727522.4522 	 1.228 	 94.845
0.6182081 	 39.7735456 	 693402.2942 	 1.224 	 94.835
0.6190188 	 40.5195361 	 658849.6947 	 1.218 	 94.826
0.6198156 	 41.2660871 	 621912.4496 	 1.212 	 94.805
0.6205987 	 42.0290988 	 578963.2062 	 1.204 	 94.804
0.6213678 	 42.7975720 	 543848.4965 	 1.196 	 94.786
0.6221241 	 43.5862912 	 506717.8319 	 1.187 	 94.789
0.6228670 	 44.3735671 	 473723.6421 	 1.177 	 94.804
0.6235969 	 45.1667137 	 444726.1506 	 1.166 	 94.776
0.6243147 	 45.9741960 	 423617.3214 	 1.153 	 94.783
0.6250212 	 46.7755271 	 413578.7729 	 1.141 	 94.811
0.6257154 	 47.5992988 	 411718.1107 	 1.131 	 94.770
0.6263985 	 48.4436645 	 420099.7892 	 1.119 	 94.791
0.6270704 	 49.2965422 	 438867.9459 	 1.108 	 94.774
0.6277315 	 50.1571016 	 466939.3533 	 1.097 	 94.800
0.6283812 	 51.0668462 	 500153.3238 	 1.089 	 94.813
0.6290196 	 51.9574302 	 535613.6589 	 1.081 	 94.783
0.6296467 	 52.9282345 	 571645.6477 	 1.075 	 94.801
