N=100 	 R=1000000 	 s=1 	 Save [density, Z, rho_t, like/unlike, events per sweep]
0.0001352 	 1.0005160 	 1.1027 	 1.012 	 10.126
0.0132617 	 1.1626538 	 12.2497 	 0.950 	 46.805
0.0260831 	 1.1528206 	 22.9574 	 1.004 	 78.892
0.0385127 	 1.1918591 	 33.4156 	 1.013 	 88.247
0.0505277 	 1.2395826 	 44.1380 	 1.016 	 92.011
0.0621804 	 1.2922177 	 54.2717 	 1.018 	 93.797
0.0734843 	 1.3482788 	 64.7082 	 1.019 	 94.744
0.0844476 	 1.4077196 	 75.0612 	 1.020 	 95.215
0.0950881 	 1.4695919 	 85.1503 	 1.021 	 95.488
0.1054268 	 1.5338991 	 95.4705 	 1.022 	 95.689
0.1154713 	 1.6002965 	 105.9977 	 1.023 	 95.728
0.1252337 	 1.6685940 	 116.5362 	 1.025 	 95.811
0.1347329 	 1.7386913 	 126.2014 	 1.026 	 95.790
0.1439728 	 1.8103709 	 137.0431 	 1.027 	 95.883
0.1529606 	 1.8843431 	 147.9628 	 1.028 	 95.860
0.1617135 	 1.9598813 	 158.6743 	 1.030 	 95.831
0.1702420 	 2.0370990 	 168.2491 	 1.031 	 95.817
0.1785570 	 2.1160236 	 177.9216 	 1.032 	 95.785
0.1866671 	 2.1967527 	 188.6867 	 1.034 	 95.785
0.1945665 	 2.2785056 	 200.6369 	 1.035 	 95.746
0.2022763 	 2.3623688 	 211.1060 	 1.036 	 95.740
0.2098006 	 2.4476834 	 220.7008 	 1.037 	 95.741
0.2171441 	 2.5343278 	 231.2735 	 1.039 	 95.714
0.2243216 	 2.6231091 	 242.7622 	 1.039 	 95.703
0.2313325 	 2.7126417 	 254.4138 	 1.041 	 95.644
0.2381824 	 2.8047605 	 265.8399 	 1.041 	 95.669
0.2448767 	 2.8974491 	 277.2772 	 1.044 	 95.640
0.2514197 	 2.9921302 	 288.0460 	 1.044 	 95.626
0.2578230 	 3.0887992 	 300.4138 	 1.045 	 95.626
0.2640829 	 3.1867281 	 308.2378 	 1.046 	 95.621
0.2702134 	 3.2851427 	 317.8131 	 1.048 	 95.576
0.2762110 	 3.3861439 	 325.2373 	 1.049 	 95.568
0.2820895 	 3.4891757 	 333.3095 	 1.050 	 95.550
0.2878463 	 3.5925814 	 345.2651 	 1.051 	 95.521
0.2934883 	 3.6990199 	 356.3926 	 1.052 	 95.577
0.2990089 	 3.8050679 	 366.4810 	 1.053 	 95.514
0.3044223 	 3.9136562 	 377.2730 	 1.053 	 95.507
0.3097295 	 4.0230864 	 388.9018 	 1.056 	 95.488
0.3149342 	 4.1358407 	 401.2931 	 1.056 	 95.524
0.3200344 	 4.2486814 	 410.8048 	 1.057 	 95.480
0.3250391 	 4.3621264 	 421.8062 	 1.058 	 95.435
0.3299517 	 4.4779659 	 434.2659 	 1.059 	 95.443
0.3347752 	 4.5957598 	 443.5400 	 1.059 	 95.433
0.3395070 	 4.7151664 	 455.3637 	 1.060 	 95.433
0.3441521 	 4.8343165 	 465.9258 	 1.062 	 95.403
0.3487153 	 4.9566559 	 474.5214 	 1.063 	 95.399
0.3531955 	 5.0800652 	 488.9429 	 1.063 	 95.400
0.3575989 	 5.2042901 	 501.6725 	 1.064 	 95.369
0.3619226 	 5.3299618 	 510.1082 	 1.065 	 95.358
0.3661731 	 5.4580971 	 518.0088 	 1.066 	 95.354
0.3703509 	 5.5867253 	 527.8740 	 1.066 	 95.335
0.3744567 	 5.7169000 	 540.6718 	 1.068 	 95.331
0.3784965 	 5.8496056 	 552.7823 	 1.068 	 95.328
0.3824673 	 5.9833535 	 565.7127 	 1.069 	 95.332
0.3863718 	 6.1178180 	 576.3830 	 1.070 	 95.328
0.3902128 	 6.2546593 	 588.4285 	 1.071 	 95.324
0.3939945 	 6.3907423 	 603.3882 	 1.072 	 95.289
0.3977124 	 6.5305468 	 615.5650 	 1.072 	 95.306
0.4013712 	 6.6708260 	 627.1394 	 1.073 	 95.318
0.4049717 	 6.8113367 	 635.0568 	 1.073 	 95.256
0.4085190 	 6.9544414 	 646.0962 	 1.074 	 95.260
0.4120127 	 7.0990381 	 661.5820 	 1.074 	 95.251
0.4154529 	 7.2453772 	 671.9297 	 1.075 	 95.218
0.4188428 	 7.3937782 	 680.3182 	 1.075 	 95.236
0.4221782 	 7.5422862 	 690.2893 	 1.076 	 95.212
0.4254626 	 7.6914637 	 699.7583 	 1.077 	 95.204
0.4286997 	 7.8440650 	 715.2214 	 1.077 	 95.180
0.4318902 	 7.9964814 	 725.3595 	 1.078 	 95.201
0.4350344 	 8.1512273 	 734.5676 	 1.079 	 95.210
0.4381313 	 8.3068627 	 748.5045 	 1.079 	 95.201
0.4411870 	 8.4634056 	 757.6370 	 1.078 	 95.182
0.4441994 	 8.6211819 	 758.9008 	 1.079 	 95.156
0.4471667 	 8.7807808 	 766.4055 	 1.080 	 95.174
0.4500926 	 8.9414718 	 782.2021 	 1.080 	 95.139
0.4529773 	 9.1051399 	 791.9058 	 1.081 	 95.175
0.4558274 	 9.2683722 	 792.6091 	 1.081 	 95.148
0.4586340 	 9.4322446 	 807.7238 	 1.081 	 95.140
0.4614049 	 9.6031515 	 820.1010 	 1.082 	 95.155
0.4641399 	 9.7666908 	 828.9908 	 1.083 	 95.103
0.4668370 	 9.9352408 	 837.6306 	 1.083 	 95.109
0.4694992 	 10.1069616 	 848.7303 	 1.084 	 95.104
0.4721247 	 10.2790129 	 859.7981 	 1.083 	 95.113
0.4747177 	 10.4503907 	 867.8569 	 1.084 	 95.101
0.4772785 	 10.6252809 	 880.9237 	 1.084 	 95.092
0.4798056 	 10.8009431 	 893.8739 	 1.085 	 95.097
0.4823000 	 10.9769369 	 904.0474 	 1.084 	 95.091
0.4847633 	 11.1559488 	 915.6292 	 1.085 	 95.083
0.4871987 	 11.3351983 	 926.3759 	 1.085 	 95.072
0.4896031 	 11.5194249 	 935.4166 	 1.086 	 95.086
0.4919746 	 11.7009369 	 941.0370 	 1.085 	 95.055
0.4943181 	 11.8847696 	 946.8049 	 1.086 	 95.035
0.4966324 	 12.0706354 	 954.6722 	 1.086 	 95.056
0.4989205 	 12.2525470 	 969.9595 	 1.087 	 95.071
0.5011803 	 12.4437956 	 979.0745 	 1.086 	 95.053
0.5034132 	 12.6331844 	 986.9529 	 1.087 	 95.011
0.5056181 	 12.8251855 	 997.6327 	 1.087 	 95.031
0.5077964 	 13.0201324 	 1008.5274 	 1.087 	 95.044
0.5099505 	 13.2112675 	 1023.6300 	 1.087 	 95.039
0.5120816 	 13.4028942 	 1030.5226 	 1.087 	 95.023
0.5141877 	 13.6003609 	 1035.5185 	 1.087 	 94.996
0.5162687 	 13.8012535 	 1042.6925 	 1.087 	 95.028
0.5183255 	 14.0015919 	 1053.8643 	 1.087 	 95.012
0.5203586 	 14.1985129 	 1064.9646 	 1.088 	 94.996
0.5223694 	 14.4012867 	 1070.3591 	 1.088 	 95.007
0.5243567 	 14.6045528 	 1086.1687 	 1.088 	 94.994
0.5263234 	 14.8126101 	 1099.3943 	 1.088 	 95.011
0.5282686 	 15.0097844 	 1114.0084 	 1.088 	 94.969
0.5301919 	 15.2227104 	 1134.4896 	 1.088 	 94.989
0.5320946 	 15.4347361 	 1137.1011 	 1.087 	 94.957
0.5339759 	 15.6492732 	 1156.7628 	 1.088 	 94.987
0.5358354 	 15.8572761 	 1169.3842 	 1.088 	 94.950
0.5376758 	 16.0747403 	 1186.0381 	 1.088 	 94.956
0.5394969 	 16.2867922 	 1201.2667 	 1.087 	 94.956
0.5412966 	 16.5025165 	 1216.5119 	 1.087 	 94.942
0.5430780 	 16.7272317 	 1232.5413 	 1.087 	 94.957
0.5448398 	 16.9395779 	 1251.9231 	 1.086 	 94.921
0.5465845 	 17.1665203 	 1276.5247 	 1.086 	 94.925
0.5483091 	 17.3883261 	 1304.6641 	 1.086 	 94.910
0.5500158 	 17.6195609 	 1334.0892 	 1.087 	 94.947
0.5517044 	 17.8462469 	 1372.7163 	 1.086 	 94.911
0.5533765 	 18.0730219 	 1397.2202 	 1.087 	 94.907
0.5550313 	 18.2966606 	 1433.1938 	 1.086 	 94.871
0.5566688 	 18.5305675 	 1475.6562 	 1.087 	 94.905
0.5582871 	 18.7613794 	 1538.2001 	 1.086 	 94.879
0.5598905 	 18.9983422 	 1613.4132 	 1.086 	 94.901
0.5614779 	 19.2430554 	 1702.0437 	 1.086 	 94.897
0.5630487 	 19.4837491 	 1809.5315 	 1.086 	 94.866
0.5646029 	 19.7269298 	 1965.4814 	 1.085 	 94.852
0.5661425 	 19.9791198 	 2155.6895 	 1.085 	 94.875
0.5676650 	 20.2287201 	 2401.4948 	 1.085 	 94.878
0.5691709 	 20.4810017 	 2684.8673 	 1.084 	 94.842
0.5706606 	 20.7421622 	 3041.1615 	 1.083 	 94.840
0.5721345 	 21.0055672 	 3505.6750 	 1.083 	 94.817
0.5735933 	 21.2820289 	 3967.7877 	 1.083 	 94.811
0.5750372 	 21.5654536 	 4591.1016 	 1.081 	 94.828
0.5764630 	 21.8483222 	 5321.2345 	 1.081 	 94.812
0.5778733 	 22.1481287 	 6139.5632 	 1.080 	 94.792
0.5792655 	 22.4478548 	 7008.3612 	 1.079 	 94.789
0.5806425 	 22.7546893 	 7999.2207 	 1.079 	 94.787
0.5820027 	 23.0809608 	 8955.5592 	 1.077 	 94.771
0.5833467 	 23.4205200 	 10035.7431 	 1.076 	 94.792
0.5846739 	 23.7513893 	 11187.9615 	 1.075 	 94.755
0.5859828 	 24.1059302 	 12362.1412 	 1.075 	 94.783
0.5872753 	 24.4597697 	 13687.0295 	 1.074 	 94.763
0.5885503 	 24.8204818 	 14977.7711 	 1.073 	 94.725
0.5898088 	 25.1989433 	 16372.4000 	 1.072 	 94.756
0.5910507 	 25.5854113 	 17865.3531 	 1.071 	 94.729
0.5922752 	 25.9973905 	 19310.6670 	 1.069 	 94.746
0.5934818 	 26.4118340 	 21241.3028 	 1.069 	 94.752
0.5946710 	 26.8201593 	 23535.0527 	 1.066 	 94.757
0.5958431 	 27.2382955 	 26396.6066 	 1.066 	 94.721
0.5969992 	 27.6767339 	 30007.8236 	 1.064 	 94.733
0.5981389 	 28.0994439 	 34928.7631 	 1.063 	 94.715
0.5992628 	 28.5581554 	 40853.8659 	 1.062 	 94.761
0.6003706 	 28.9993787 	 48733.2360 	 1.060 	 94.738
0.6014615 	 29.4609512 	 58648.3649 	 1.059 	 94.756
0.6025379 	 29.9221715 	 69464.1978 	 1.056 	 94.741
0.6035981 	 30.4040759 	 82860.8125 	 1.056 	 94.755
0.6046439 	 30.8808381 	 97659.6428 	 1.054 	 94.716
0.6056738 	 31.3881221 	 113785.7177 	 1.053 	 94.750
0.6066890 	 31.8988522 	 133314.5135 	 1.052 	 94.743
0.6076891 	 32.4118745 	 152588.8047 	 1.050 	 94.726
0.6086737 	 32.9524979 	 173829.9589 	 1.050 	 94.723
0.6096432 	 33.5003169 	 197817.4952 	 1.049 	 94.731
0.6105986 	 34.0667202 	 223079.2609 	 1.049 	 94.717
0.6115383 	 34.6420733 	 249152.4908 	 1.048 	 94.696
0.6124638 	 35.2411570 	 275738.3057 	 1.048 	 94.717
0.6133735 	 35.8438651 	 301434.6836 	 1.048 	 94.659
0.6142690 	 36.4920813 	 325030.2782 	 1.048 	 94.686
0.6151496 	 37.1300563 	 352719.1317 	 1.048 	 94.665
0.6160159 	 37.7968535 	 375410.6879 	 1.048 	 94.656
0.6168672 	 38.4846938 	 395205.6135 	 1.048 	 94.655
0.6177036 	 39.1862917 	 419121.9405 	 1.048 	 94.642
0.6185267 	 39.8934685 	 439943.6971 	 1.048 	 94.646
0.6193352 	 40.6020961 	 463192.7006 	 1.049 	 94.610
0.6201303 	 41.3542732 	 481218.7679 	 1.050 	 94.631
0.6209122 	 42.0845269 	 497228.6718 	 1.050 	 94.611
0.6216813 	 42.8336431 	 507323.4608 	 1.050 	 94.641
0.6224369 	 43.5901195 	 510293.7425 	 1.050 	 94.638
0.6231802 	 44.3041137 	 506099.9722 	 1.050 	 94.631
0.6239129 	 45.0252168 	 489454.3195 	 1.049 	 94.694
0.6246350 	 45.6830129 	 465254.3020 	 1.047 	 94.706
0.6253469 	 46.2920688 	 436072.4082 	 1.044 	 94.735
0.6260511 	 46.8628652 	 418773.5761 	 1.040 	 94.861
0.6267478 	 47.3565703 	 424400.9946 	 1.035 	 94.945
0.6274381 	 47.8353633 	 464788.5488 	 1.029 	 95.075
0.6281224 	 48.3248394 	 538171.4649 	 1.024 	 95.134
0.6287993 	 48.8803466 	 632387.4736 	 1.018 	 95.226
0.6294685 	 49.5184996 	 726536.7330 	 1.015 	 95.274
