N=100 	 R=1000000 	 s=1 	 Save [density, Z, rho_t, like/unlike, events per sweep]
0.0001349 	 1.0005122 	 1.1025 	 1.014 	 10.125
0.0132604 	 1.1624610 	 12.2235 	 0.951 	 46.855
0.0260757 	 1.1527424 	 22.9452 	 1.004 	 78.961
0.0384844 	 1.1917917 	 33.3150 	 1.013 	 88.238
0.0505005 	 1.2394595 	 43.6939 	 1.016 	 92.001
0.0621484 	 1.2920167 	 53.7286 	 1.018 	 93.779
0.0734487 	 1.3481716 	 63.9296 	 1.019 	 94.767
0.0844223 	 1.4075427 	 74.1946 	 1.020 	 95.241
0.0950690 	 1.4694930 	 83.9313 	 1.021 	 95.524
0.1054031 	 1.5337385 	 94.4463 	 1.022 	 95.680
0.1154474 	 1.6000944 	 104.8115 	 1.024 	 95.739
0.1252148 	 1.6682840 	 114.4513 	 1.024 	 95.783
0.1347014 	 1.7386677 	 124.7334 	 1.026 	 95.829
0.1439387 	 1.8100994 	 134.7060 	 1.027 	 95.894
0.1529339 	 1.8838842 	 146.0298 	 1.029 	 95.855
0.1616932 	 1.9594904 	 157.1773 	 1.030 	 95.824
0.1702228 	 2.0368842 	 166.8045 	 1.031 	 95.799
0.1785381 	 2.1156807 	 178.5697 	 1.032 	 95.780
0.1866406 	 2.1963735 	 189.8225 	 1.033 	 95.789
0.1945451 	 2.2782694 	 199.9438 	 1.035 	 95.754
0.2022586 	 2.3617332 	 210.2587 	 1.036 	 95.711
0.2097841 	 2.4473712 	 220.8962 	 1.037 	 95.700
0.2171266 	 2.5344714 	 229.6098 	 1.039 	 95.742
0.2243042 	 2.6225864 	 239.6824 	 1.040 	 95.666
0.2313149 	 2.7130414 	 251.5066 	 1.041 	 95.695
0.2381647 	 2.8044118 	 263.2234 	 1.042 	 95.655
0.2448573 	 2.8973950 	 272.8427 	 1.043 	 95.646
0.2514034 	 2.9922316 	 284.4167 	 1.044 	 95.630
0.2578049 	 3.0879983 	 292.9293 	 1.046 	 95.610
0.2640661 	 3.1860766 	 302.2874 	 1.047 	 95.600
0.2701923 	 3.2848769 	 312.8403 	 1.047 	 95.585
0.2761931 	 3.3860715 	 322.4340 	 1.049 	 95.580
0.2820677 	 3.4885508 	 331.1562 	 1.049 	 95.582
0.2878244 	 3.5929837 	 340.4959 	 1.051 	 95.556
0.2934565 	 3.6973711 	 350.8692 	 1.052 	 95.532
0.2989839 	 3.8049612 	 360.3275 	 1.053 	 95.507
0.3043969 	 3.9135672 	 373.0914 	 1.055 	 95.529
0.3097057 	 4.0225898 	 385.1028 	 1.055 	 95.472
0.3149125 	 4.1349093 	 396.1664 	 1.056 	 95.505
0.3200162 	 4.2473377 	 404.8782 	 1.056 	 95.477
0.3250258 	 4.3621274 	 415.9320 	 1.057 	 95.467
0.3299381 	 4.4779141 	 425.6355 	 1.059 	 95.448
0.3347552 	 4.5943466 	 433.3141 	 1.060 	 95.428
0.3394874 	 4.7140649 	 442.9807 	 1.061 	 95.423
0.3441348 	 4.8338017 	 454.5621 	 1.062 	 95.407
0.3486974 	 4.9565975 	 467.3620 	 1.063 	 95.380
0.3531811 	 5.0802988 	 476.8159 	 1.063 	 95.403
0.3575829 	 5.2035141 	 489.7059 	 1.064 	 95.378
0.3619074 	 5.3307005 	 497.4119 	 1.065 	 95.367
0.3661579 	 5.4563254 	 509.7499 	 1.065 	 95.356
0.3703345 	 5.5854036 	 520.1889 	 1.066 	 95.320
0.3744390 	 5.7168402 	 532.0985 	 1.067 	 95.325
0.3784796 	 5.8490576 	 543.8033 	 1.069 	 95.327
0.3824474 	 5.9813278 	 552.1637 	 1.069 	 95.309
0.3863551 	 6.1177707 	 560.8827 	 1.070 	 95.313
0.3901966 	 6.2526305 	 573.4259 	 1.071 	 95.280
0.3939746 	 6.3898688 	 584.9596 	 1.071 	 95.299
0.3976932 	 6.5291833 	 598.8813 	 1.072 	 95.283
0.4013525 	 6.6685782 	 614.0345 	 1.073 	 95.254
0.4049582 	 6.8110832 	 620.8353 	 1.073 	 95.244
0.4085059 	 6.9544357 	 630.3770 	 1.073 	 95.253
0.4119972 	 7.0983216 	 642.8375 	 1.074 	 95.231
0.4154349 	 7.2451645 	 652.1420 	 1.075 	 95.238
0.4188227 	 7.3933945 	 664.0617 	 1.076 	 95.234
0.4221579 	 7.5410046 	 674.9786 	 1.076 	 95.223
0.4254406 	 7.6912157 	 684.2441 	 1.076 	 95.237
0.4286799 	 7.8418811 	 691.6613 	 1.078 	 95.205
0.4318706 	 7.9960442 	 698.3044 	 1.077 	 95.188
0.4350155 	 8.1527373 	 704.6633 	 1.078 	 95.220
0.4381106 	 8.3048699 	 716.9631 	 1.079 	 95.190
0.4411622 	 8.4633243 	 729.1168 	 1.079 	 95.213
0.4441710 	 8.6205985 	 738.7664 	 1.080 	 95.170
0.4471375 	 8.7796229 	 754.0342 	 1.079 	 95.165
0.4500637 	 8.9400524 	 763.4328 	 1.080 	 95.175
0.4529497 	 9.1024484 	 768.2937 	 1.081 	 95.150
0.4557981 	 9.2662243 	 778.8272 	 1.081 	 95.152
0.4586068 	 9.4331706 	 786.6052 	 1.082 	 95.165
0.4613762 	 9.5999974 	 798.3463 	 1.082 	 95.137
0.4641113 	 9.7660712 	 808.2552 	 1.083 	 95.134
0.4668093 	 9.9343217 	 817.8422 	 1.083 	 95.111
0.4694731 	 10.1061235 	 828.9427 	 1.083 	 95.117
0.4720976 	 10.2770665 	 843.5028 	 1.083 	 95.107
0.4746921 	 10.4498539 	 856.9951 	 1.083 	 95.106
0.4772522 	 10.6238530 	 870.2408 	 1.083 	 95.106
0.4797799 	 10.7986575 	 879.4478 	 1.083 	 95.078
0.4822761 	 10.9806399 	 891.1488 	 1.084 	 95.105
0.4847396 	 11.1570368 	 898.7649 	 1.085 	 95.119
0.4871727 	 11.3352583 	 907.3700 	 1.085 	 95.067
0.4895746 	 11.5159976 	 914.5567 	 1.085 	 95.074
0.4919453 	 11.6976929 	 927.5378 	 1.085 	 95.051
0.4942880 	 11.8805592 	 941.1858 	 1.085 	 95.055
0.4966039 	 12.0680590 	 947.9397 	 1.086 	 95.076
0.4988909 	 12.2567071 	 955.8750 	 1.086 	 95.064
0.5011494 	 12.4412749 	 965.5372 	 1.086 	 95.040
0.5033831 	 12.6341192 	 979.1672 	 1.086 	 95.064
0.5055910 	 12.8213332 	 991.4315 	 1.087 	 95.056
0.5077717 	 13.0128424 	 999.7911 	 1.087 	 95.008
0.5099268 	 13.2085976 	 1015.4095 	 1.086 	 95.028
0.5120562 	 13.4062700 	 1036.9928 	 1.087 	 95.021
0.5141622 	 13.6015513 	 1053.4945 	 1.087 	 95.028
0.5162425 	 13.7988273 	 1055.1138 	 1.087 	 95.035
0.5182998 	 13.9946522 	 1077.1727 	 1.088 	 95.024
0.5203341 	 14.1972433 	 1084.6811 	 1.088 	 95.005
0.5223459 	 14.4040086 	 1096.8491 	 1.088 	 95.007
0.5243351 	 14.6062424 	 1116.7867 	 1.089 	 94.988
0.5263012 	 14.8095922 	 1125.9630 	 1.088 	 95.015
0.5282466 	 15.0163215 	 1146.2123 	 1.088 	 94.970
0.5301703 	 15.2202576 	 1163.4995 	 1.088 	 94.969
0.5320716 	 15.4331415 	 1171.6975 	 1.087 	 94.967
0.5339519 	 15.6440090 	 1185.3882 	 1.087 	 94.953
0.5358117 	 15.8521495 	 1195.9926 	 1.088 	 94.954
0.5376527 	 16.0712060 	 1218.0522 	 1.088 	 94.973
0.5394737 	 16.2843595 	 1230.0815 	 1.088 	 94.952
0.5412754 	 16.4959577 	 1245.3298 	 1.087 	 94.939
0.5430574 	 16.7174240 	 1261.9789 	 1.086 	 94.936
0.5448210 	 16.9334541 	 1294.1871 	 1.086 	 94.923
0.5465657 	 17.1579852 	 1311.2507 	 1.086 	 94.917
0.5482902 	 17.3758928 	 1337.2358 	 1.086 	 94.903
0.5499998 	 17.6005511 	 1366.4759 	 1.086 	 94.924
0.5516907 	 17.8298504 	 1392.2360 	 1.086 	 94.914
0.5533634 	 18.0537727 	 1437.9095 	 1.086 	 94.911
0.5550190 	 18.2867825 	 1481.7289 	 1.085 	 94.926
0.5566568 	 18.5164694 	 1551.5820 	 1.086 	 94.896
0.5582779 	 18.7521944 	 1637.2076 	 1.085 	 94.896
0.5598829 	 18.9858275 	 1752.1735 	 1.085 	 94.894
0.5614723 	 19.2208949 	 1910.6775 	 1.085 	 94.869
0.5630453 	 19.4572730 	 2114.2853 	 1.085 	 94.857
0.5646019 	 19.6946800 	 2381.4808 	 1.086 	 94.881
0.5661420 	 19.9341073 	 2738.9870 	 1.085 	 94.853
0.5676682 	 20.1777117 	 3259.5375 	 1.085 	 94.866
0.5691788 	 20.4227369 	 3905.5569 	 1.085 	 94.827
0.5706756 	 20.6716919 	 4732.1742 	 1.086 	 94.841
0.5721565 	 20.9280781 	 5772.2004 	 1.087 	 94.802
0.5736218 	 21.1874104 	 7086.3980 	 1.088 	 94.817
0.5750718 	 21.4513369 	 8840.2940 	 1.089 	 94.803
0.5765057 	 21.7229439 	 10698.4784 	 1.089 	 94.817
0.5779253 	 22.0094412 	 12889.9190 	 1.091 	 94.807
0.5793283 	 22.2903848 	 15445.3543 	 1.092 	 94.759
0.5807160 	 22.5941231 	 18127.0833 	 1.092 	 94.777
0.5820874 	 22.8937805 	 21108.3729 	 1.094 	 94.726
0.5834434 	 23.2120288 	 24448.1853 	 1.094 	 94.707
0.5847816 	 23.5483813 	 28118.0357 	 1.096 	 94.719
0.5861037 	 23.8882266 	 32029.5515 	 1.096 	 94.731
0.5874093 	 24.2329762 	 36152.5166 	 1.097 	 94.716
0.5886989 	 24.5874613 	 40592.6381 	 1.098 	 94.707
0.5899700 	 24.9491766 	 44980.4187 	 1.099 	 94.700
0.5912249 	 25.3247763 	 49744.9850 	 1.100 	 94.715
0.5924638 	 25.6941843 	 55747.6049 	 1.103 	 94.705
0.5936859 	 26.0806341 	 62258.0374 	 1.105 	 94.742
0.5948924 	 26.4748515 	 69538.5954 	 1.106 	 94.722
0.5960831 	 26.8844016 	 78241.9427 	 1.109 	 94.736
0.5972565 	 27.3017939 	 87893.1235 	 1.112 	 94.729
0.5984139 	 27.7300645 	 97572.8069 	 1.114 	 94.744
0.5995544 	 28.1709813 	 109650.5876 	 1.117 	 94.758
0.6006774 	 28.6206937 	 121799.9609 	 1.121 	 94.770
0.6017849 	 29.0891123 	 134376.0951 	 1.124 	 94.759
0.6028757 	 29.5762299 	 147476.8229 	 1.126 	 94.763
0.6039498 	 30.0777258 	 160814.4820 	 1.128 	 94.768
0.6050074 	 30.5815782 	 174131.6174 	 1.130 	 94.773
0.6060477 	 31.1155167 	 186655.1005 	 1.130 	 94.770
0.6070712 	 31.6632997 	 195809.7472 	 1.131 	 94.786
0.6080790 	 32.2181353 	 203624.2116 	 1.130 	 94.771
0.6090703 	 32.7872353 	 209994.5571 	 1.127 	 94.758
0.6100448 	 33.3665628 	 213414.9339 	 1.123 	 94.783
0.6110039 	 33.9491918 	 215949.6547 	 1.118 	 94.793
0.6119472 	 34.5431126 	 218113.0191 	 1.112 	 94.793
0.6128753 	 35.1435486 	 220463.6836 	 1.104 	 94.846
0.6137882 	 35.7278677 	 224061.8502 	 1.096 	 94.858
0.6146876 	 36.3173916 	 230750.2842 	 1.086 	 94.838
0.6155734 	 36.8949131 	 242926.4878 	 1.075 	 94.862
0.6164456 	 37.4714464 	 264437.3907 	 1.065 	 94.873
0.6173068 	 38.0302603 	 297970.9406 	 1.052 	 94.893
0.6181559 	 38.5798392 	 345211.7677 	 1.041 	 94.867
0.6189935 	 39.1364306 	 407436.2234 	 1.031 	 94.901
0.6198207 	 39.7189227 	 478407.1923 	 1.023 	 94.917
0.6206366 	 40.2922474 	 554178.9586 	 1.017 	 94.865
0.6214411 	 40.9171484 	 632264.1604 	 1.012 	 94.868
0.6222338 	 41.5627896 	 704621.0214 	 1.008 	 94.847
0.6230147 	 42.2471384 	 768183.3925 	 1.006 	 94.838
0.6237831 	 42.9632469 	 824934.3007 	 1.005 	 94.848
0.6245394 	 43.7175049 	 869187.7451 	 1.004 	 94.812
0.6252830 	 44.4819500 	 905052.6516 	 1.005 	 94.788
0.6260137 	 45.3112668 	 933100.5144 	 1.006 	 94.765
0.6267322 	 46.1671511 	 952763.1076 	 1.007 	 94.792
0.6274376 	 47.0247348 	 967069.2889 	 1.008 	 94.769
0.6281306 	 47.9251191 	 976476.9355 	 1.010 	 94.749
0.6288107 	 48.8386321 	 983137.4547 	 1.012 	 94.733
0.6294780 	 49.7870030 	 987928.9428 	 1.013 	 94.735
