N=100 	 R=1000000 	 s=1 	 Save [density, Z, rho_t, like/unlike, events per sweep]
0.0001345 	 1.0005111 	 1.1026 	 1.000 	 10.124
0.0132473 	 1.1628441 	 12.1961 	 0.949 	 46.713
0.0260705 	 1.1528444 	 22.8698 	 1.004 	 78.921
0.0384998 	 1.1918389 	 33.2295 	 1.013 	 88.248
0.0505154 	 1.2394927 	 43.9224 	 1.016 	 91.993
0.0621619 	 1.2921791 	 54.3782 	 1.017 	 93.820
0.0734696 	 1.3482357 	 64.5892 	 1.019 	 94.786
0.0844264 	 1.4075321 	 75.3898 	 1.020 	 95.230
0.0950665 	 1.4696263 	 85.9280 	 1.021 	 95.507
0.1053938 	 1.5336454 	 95.5498 	 1.022 	 95.662
0.1154441 	 1.6002207 	 105.7457 	 1.023 	 95.771
0.1252155 	 1.6685559 	 115.8099 	 1.025 	 95.801
0.1347154 	 1.7386962 	 125.7814 	 1.026 	 95.824
0.1439618 	 1.8102098 	 135.5682 	 1.027 	 95.861
0.1529512 	 1.8840177 	 146.9373 	 1.028 	 95.834
0.1617129 	 1.9598052 	 158.6081 	 1.030 	 95.823
0.1702355 	 2.0369021 	 169.1085 	 1.030 	 95.781
0.1785483 	 2.1159688 	 180.2612 	 1.032 	 95.808
0.1866500 	 2.1957845 	 190.2026 	 1.034 	 95.734
0.1945554 	 2.2783738 	 200.3299 	 1.035 	 95.756
0.2022609 	 2.3620370 	 212.2978 	 1.036 	 95.737
0.2097875 	 2.4476824 	 223.6774 	 1.037 	 95.713
0.2171380 	 2.5343616 	 236.0649 	 1.039 	 95.692
0.2243096 	 2.6227240 	 245.6651 	 1.040 	 95.718
0.2313145 	 2.7123856 	 258.6889 	 1.041 	 95.643
0.2381619 	 2.8045621 	 268.1485 	 1.042 	 95.675
0.2448544 	 2.8969511 	 279.4451 	 1.043 	 95.619
0.2514044 	 2.9925089 	 290.7871 	 1.045 	 95.647
0.2578076 	 3.0881956 	 301.0400 	 1.045 	 95.634
0.2640702 	 3.1856855 	 312.7284 	 1.046 	 95.580
0.2702039 	 3.2851200 	 320.7075 	 1.047 	 95.560
0.2762057 	 3.3862734 	 327.9613 	 1.048 	 95.566
0.2820798 	 3.4881981 	 339.2755 	 1.050 	 95.528
0.2878389 	 3.5929002 	 346.6690 	 1.051 	 95.543
0.2934746 	 3.6981112 	 357.9833 	 1.052 	 95.525
0.2990023 	 3.8049086 	 367.6221 	 1.053 	 95.505
0.3044140 	 3.9128105 	 376.5843 	 1.054 	 95.503
0.3097209 	 4.0238623 	 385.7549 	 1.054 	 95.499
0.3149254 	 4.1347976 	 392.5472 	 1.056 	 95.481
0.3200300 	 4.2479230 	 403.8915 	 1.057 	 95.486
0.3250374 	 4.3626340 	 415.4895 	 1.058 	 95.472
0.3299516 	 4.4786034 	 425.2655 	 1.059 	 95.444
0.3347734 	 4.5959383 	 437.1435 	 1.060 	 95.443
0.3395065 	 4.7141708 	 450.4032 	 1.060 	 95.409
0.3441527 	 4.8340333 	 457.2645 	 1.061 	 95.398
0.3487137 	 4.9565109 	 465.5694 	 1.062 	 95.401
0.3531924 	 5.0797303 	 474.5862 	 1.063 	 95.385
0.3575930 	 5.2038771 	 486.5524 	 1.064 	 95.362
0.3619172 	 5.3307968 	 494.6594 	 1.065 	 95.373
0.3661671 	 5.4571186 	 507.4213 	 1.066 	 95.345
0.3703410 	 5.5858257 	 520.1744 	 1.067 	 95.344
0.3744479 	 5.7180547 	 523.8206 	 1.068 	 95.341
0.3784868 	 5.8483207 	 532.4535 	 1.068 	 95.328
0.3824558 	 5.9818309 	 544.2160 	 1.068 	 95.318
0.3863614 	 6.1171806 	 554.8649 	 1.069 	 95.313
0.3902035 	 6.2542471 	 568.5507 	 1.070 	 95.330
0.3939807 	 6.3900268 	 580.4953 	 1.071 	 95.281
0.3976984 	 6.5299289 	 591.7586 	 1.071 	 95.269
0.4013576 	 6.6697021 	 597.6733 	 1.073 	 95.283
0.4049592 	 6.8118169 	 608.7146 	 1.074 	 95.261
0.4085061 	 6.9536741 	 622.1189 	 1.074 	 95.220
0.4119975 	 7.0994072 	 633.2257 	 1.075 	 95.253
0.4154390 	 7.2445084 	 643.6014 	 1.075 	 95.227
0.4188262 	 7.3923650 	 659.3113 	 1.076 	 95.228
0.4221629 	 7.5411980 	 669.1627 	 1.076 	 95.228
0.4254498 	 7.6937028 	 672.0962 	 1.076 	 95.229
0.4286858 	 7.8437832 	 681.9143 	 1.078 	 95.215
0.4318761 	 7.9957724 	 688.7839 	 1.078 	 95.201
0.4350207 	 8.1517533 	 698.6896 	 1.078 	 95.209
0.4381211 	 8.3044342 	 708.3624 	 1.079 	 95.176
0.4411746 	 8.4623187 	 717.3483 	 1.080 	 95.186
0.4441844 	 8.6208681 	 730.0182 	 1.080 	 95.168
0.4471526 	 8.7814254 	 740.2234 	 1.081 	 95.158
0.4500797 	 8.9406257 	 749.9796 	 1.080 	 95.149
0.4529655 	 9.1054842 	 762.6252 	 1.082 	 95.136
0.4558112 	 9.2684254 	 776.8386 	 1.082 	 95.146
0.4586183 	 9.4324391 	 786.1625 	 1.082 	 95.136
0.4613900 	 9.5999997 	 793.9809 	 1.082 	 95.151
0.4641243 	 9.7661737 	 799.8125 	 1.083 	 95.112
0.4668205 	 9.9354450 	 803.5456 	 1.083 	 95.112
0.4694826 	 10.1076133 	 808.8616 	 1.083 	 95.125
0.4721123 	 10.2768087 	 815.8698 	 1.083 	 95.113
0.4747052 	 10.4527333 	 820.7044 	 1.084 	 95.131
0.4772652 	 10.6255566 	 827.0587 	 1.085 	 95.121
0.4797899 	 10.8006625 	 840.9944 	 1.084 	 95.083
0.4822843 	 10.9778451 	 850.9287 	 1.084 	 95.088
0.4847472 	 11.1550762 	 864.1702 	 1.085 	 95.058
0.4871810 	 11.3343343 	 872.7163 	 1.084 	 95.076
0.4895825 	 11.5169784 	 882.3120 	 1.085 	 95.054
0.4919571 	 11.7001493 	 888.2610 	 1.085 	 95.085
0.4943000 	 11.8835972 	 892.5580 	 1.085 	 95.065
0.4966145 	 12.0668954 	 904.1948 	 1.085 	 95.042
0.4989017 	 12.2548689 	 910.3694 	 1.086 	 95.032
0.5011617 	 12.4439574 	 923.6001 	 1.087 	 95.030
0.5033934 	 12.6328176 	 937.7202 	 1.087 	 95.021
0.5055995 	 12.8258457 	 946.9708 	 1.087 	 95.047
0.5077807 	 13.0160138 	 963.1527 	 1.087 	 95.012
0.5099367 	 13.2085927 	 974.3166 	 1.088 	 95.027
0.5120662 	 13.4049044 	 989.8025 	 1.088 	 95.007
0.5141720 	 13.6016351 	 997.9749 	 1.087 	 95.026
0.5162530 	 13.7955388 	 1010.6125 	 1.088 	 95.027
0.5183092 	 13.9950580 	 1024.7102 	 1.088 	 94.996
0.5203423 	 14.1973663 	 1036.3305 	 1.088 	 94.998
0.5223522 	 14.3985426 	 1056.3436 	 1.088 	 95.003
0.5243404 	 14.6034354 	 1068.8295 	 1.088 	 95.019
0.5263060 	 14.8054629 	 1078.5076 	 1.088 	 94.994
0.5282496 	 15.0159432 	 1091.6848 	 1.088 	 94.990
0.5301727 	 15.2200801 	 1103.0521 	 1.088 	 94.957
0.5320727 	 15.4282277 	 1127.8742 	 1.088 	 94.976
0.5339542 	 15.6416610 	 1146.2631 	 1.087 	 94.969
0.5358151 	 15.8525308 	 1150.4732 	 1.087 	 94.965
0.5376552 	 16.0690122 	 1166.5151 	 1.086 	 94.974
0.5394752 	 16.2806660 	 1185.8865 	 1.087 	 94.966
0.5412762 	 16.4998569 	 1202.6310 	 1.088 	 94.968
0.5430587 	 16.7163715 	 1218.9865 	 1.088 	 94.951
0.5448220 	 16.9336475 	 1230.2060 	 1.088 	 94.930
0.5465668 	 17.1554667 	 1254.4941 	 1.088 	 94.914
0.5482937 	 17.3742664 	 1283.6244 	 1.087 	 94.934
0.5500015 	 17.6016762 	 1308.4431 	 1.088 	 94.942
0.5516917 	 17.8216991 	 1345.1884 	 1.086 	 94.893
0.5533659 	 18.0535592 	 1388.7483 	 1.087 	 94.915
0.5550220 	 18.2858979 	 1456.9230 	 1.087 	 94.897
0.5566610 	 18.5155222 	 1536.9351 	 1.087 	 94.896
0.5582830 	 18.7522031 	 1638.8033 	 1.088 	 94.937
0.5598884 	 18.9792267 	 1766.0175 	 1.088 	 94.880
0.5614769 	 19.2203235 	 1937.5209 	 1.088 	 94.904
0.5630492 	 19.4639207 	 2184.9223 	 1.088 	 94.897
0.5646053 	 19.6993539 	 2529.8069 	 1.088 	 94.879
0.5661474 	 19.9518997 	 2983.0052 	 1.089 	 94.879
0.5676725 	 20.1978593 	 3594.9838 	 1.090 	 94.895
0.5691812 	 20.4469841 	 4362.3691 	 1.090 	 94.867
0.5706742 	 20.7057010 	 5313.1537 	 1.092 	 94.856
0.5721510 	 20.9636588 	 6607.4496 	 1.093 	 94.844
0.5736131 	 21.2335511 	 8077.9081 	 1.094 	 94.857
0.5750590 	 21.5038744 	 10046.9852 	 1.094 	 94.854
0.5764899 	 21.7801795 	 12407.1639 	 1.095 	 94.827
0.5779059 	 22.0687466 	 15307.0245 	 1.095 	 94.852
0.5793040 	 22.3622777 	 18490.0999 	 1.096 	 94.818
0.5806863 	 22.6695786 	 22138.7932 	 1.097 	 94.842
0.5820525 	 22.9749518 	 26573.3492 	 1.097 	 94.831
0.5834029 	 23.3063095 	 31194.1485 	 1.099 	 94.891
0.5847360 	 23.6437174 	 36703.1367 	 1.100 	 94.899
0.5860526 	 23.9843577 	 41950.1752 	 1.101 	 94.875
0.5873519 	 24.3366708 	 48086.4392 	 1.102 	 94.887
0.5886342 	 24.6987641 	 54899.0793 	 1.104 	 94.904
0.5898990 	 25.0710954 	 62486.6415 	 1.106 	 94.892
0.5911468 	 25.4607143 	 71325.3465 	 1.109 	 94.912
0.5923782 	 25.8413477 	 81487.5359 	 1.112 	 94.910
0.5935936 	 26.2361539 	 92720.2062 	 1.115 	 94.905
0.5947927 	 26.6284064 	 106731.0806 	 1.118 	 94.884
0.5959750 	 27.0442443 	 124463.6542 	 1.124 	 94.923
0.5971410 	 27.4460666 	 145416.3263 	 1.130 	 94.908
0.5982914 	 27.8640875 	 170169.0233 	 1.135 	 94.926
0.5994268 	 28.2865313 	 200100.0579 	 1.143 	 94.921
0.6005462 	 28.7061894 	 233884.7976 	 1.151 	 94.920
0.6016511 	 29.1315763 	 274690.2820 	 1.160 	 94.883
0.6027410 	 29.5599661 	 316883.2690 	 1.171 	 94.908
0.6038150 	 30.0070582 	 361878.5694 	 1.181 	 94.869
0.6048749 	 30.4730382 	 407899.7022 	 1.190 	 94.867
0.6059199 	 30.9567174 	 454056.9424 	 1.200 	 94.859
0.6069502 	 31.4574524 	 500258.8717 	 1.210 	 94.868
0.6079648 	 31.9739250 	 541494.6643 	 1.221 	 94.793
0.6089635 	 32.5005904 	 582551.4779 	 1.230 	 94.789
0.6099475 	 33.0613143 	 617828.2249 	 1.239 	 94.783
0.6109153 	 33.6381524 	 648940.0944 	 1.247 	 94.746
0.6118672 	 34.2392298 	 675749.8755 	 1.255 	 94.723
0.6128038 	 34.8698039 	 703929.7008 	 1.264 	 94.723
0.6137234 	 35.5146046 	 728444.8206 	 1.271 	 94.668
0.6146277 	 36.1824241 	 751729.4269 	 1.279 	 94.652
0.6155164 	 36.8468749 	 770832.8160 	 1.286 	 94.579
0.6163887 	 37.5579134 	 791059.9751 	 1.293 	 94.618
0.6172462 	 38.2840667 	 807804.0455 	 1.300 	 94.570
0.6180875 	 39.0280092 	 822540.1887 	 1.306 	 94.576
0.6189132 	 39.7848713 	 836659.6995 	 1.313 	 94.519
0.6197239 	 40.5866517 	 849582.7081 	 1.319 	 94.509
0.6205200 	 41.3938599 	 857768.0182 	 1.324 	 94.490
0.6213003 	 42.2157454 	 866425.5228 	 1.331 	 94.449
0.6220659 	 43.0445943 	 877363.1788 	 1.335 	 94.399
0.6228174 	 43.9200885 	 885963.5023 	 1.341 	 94.395
0.6235541 	 44.8176086 	 895436.3344 	 1.347 	 94.380
0.6242766 	 45.7156084 	 905847.1358 	 1.353 	 94.348
0.6249858 	 46.6510850 	 912673.9923 	 1.358 	 94.330
0.6256808 	 47.6147853 	 920653.3440 	 1.365 	 94.309
0.6263626 	 48.5988811 	 927097.2255 	 1.370 	 94.282
0.6270308 	 49.6143827 	 931051.0261 	 1.375 	 94.304
0.6276861 	 50.6494087 	 936473.4933 	 1.380 	 94.240
0.6283284 	 51.6981479 	 940440.2672 	 1.385 	 94.221
0.6289579 	 52.7888038 	 944707.0836 	 1.390 	 94.222
0.6295746 	 53.9027467 	 948459.0184 	 1.396 	 94.138
