N=100 	 R=1000000 	 s=1 	 Save [density, Z, rho_t, like/unlike, events per sweep]
0.0001345 	 1.0005107 	 1.1027 	 1.004 	 10.124
0.0132701 	 1.1624856 	 12.2512 	 0.950 	 46.841
0.0260936 	 1.1527946 	 22.7418 	 1.005 	 78.925
0.0385085 	 1.1918559 	 33.2969 	 1.013 	 88.282
0.0505341 	 1.2396642 	 43.7436 	 1.016 	 92.023
0.0621781 	 1.2921467 	 54.2407 	 1.017 	 93.806
0.0734714 	 1.3482181 	 64.6936 	 1.019 	 94.790
0.0844411 	 1.4076888 	 74.6280 	 1.020 	 95.227
0.0950734 	 1.4695685 	 84.9938 	 1.021 	 95.517
0.1054084 	 1.5337510 	 95.3265 	 1.022 	 95.689
0.1154581 	 1.6001238 	 106.0458 	 1.024 	 95.762
0.1252218 	 1.6684373 	 116.4227 	 1.025 	 95.813
0.1347172 	 1.7390040 	 126.9902 	 1.026 	 95.836
0.1439606 	 1.8102586 	 137.1858 	 1.027 	 95.887
0.1529568 	 1.8843153 	 147.3517 	 1.028 	 95.866
0.1617117 	 1.9597303 	 156.8709 	 1.030 	 95.810
0.1702472 	 2.0373277 	 168.4158 	 1.031 	 95.796
0.1785582 	 2.1162017 	 179.2262 	 1.032 	 95.815
0.1866598 	 2.1966455 	 188.3073 	 1.034 	 95.779
0.1945548 	 2.2782780 	 198.3785 	 1.035 	 95.737
0.2022595 	 2.3623246 	 210.2816 	 1.036 	 95.733
0.2097866 	 2.4473468 	 220.9738 	 1.037 	 95.715
0.2171350 	 2.5345778 	 230.0538 	 1.038 	 95.714
0.2243125 	 2.6230445 	 239.9278 	 1.040 	 95.668
0.2313218 	 2.7129165 	 249.1763 	 1.040 	 95.704
0.2381742 	 2.8043095 	 259.5656 	 1.042 	 95.672
0.2448675 	 2.8974597 	 268.3765 	 1.043 	 95.625
0.2514168 	 2.9923566 	 277.9037 	 1.044 	 95.621
0.2578154 	 3.0887440 	 286.6049 	 1.045 	 95.616
0.2640779 	 3.1858047 	 296.8732 	 1.046 	 95.571
0.2702071 	 3.2852528 	 307.4406 	 1.048 	 95.564
0.2762089 	 3.3867073 	 316.2294 	 1.048 	 95.581
0.2820866 	 3.4887809 	 328.7514 	 1.050 	 95.549
0.2878381 	 3.5929301 	 340.2020 	 1.051 	 95.559
0.2934757 	 3.6976928 	 350.5676 	 1.052 	 95.504
0.2990038 	 3.8046037 	 360.5752 	 1.053 	 95.516
0.3044147 	 3.9135518 	 371.3583 	 1.054 	 95.515
0.3097206 	 4.0229953 	 381.2911 	 1.055 	 95.474
0.3149310 	 4.1350480 	 390.8057 	 1.056 	 95.474
0.3200353 	 4.2476618 	 401.9283 	 1.057 	 95.508
0.3250413 	 4.3614814 	 414.0544 	 1.058 	 95.452
0.3299528 	 4.4777735 	 421.0485 	 1.058 	 95.452
0.3347697 	 4.5958348 	 432.7627 	 1.059 	 95.442
0.3394942 	 4.7144563 	 444.9140 	 1.061 	 95.425
0.3441381 	 4.8346880 	 454.2625 	 1.061 	 95.410
0.3487017 	 4.9566706 	 460.1638 	 1.062 	 95.434
0.3531823 	 5.0790221 	 468.7091 	 1.063 	 95.369
0.3575851 	 5.2036794 	 478.5522 	 1.064 	 95.361
0.3619100 	 5.3297004 	 492.2982 	 1.065 	 95.387
0.3661604 	 5.4576918 	 503.2284 	 1.066 	 95.365
0.3703359 	 5.5869751 	 513.6148 	 1.066 	 95.349
0.3744449 	 5.7182937 	 521.5342 	 1.067 	 95.342
0.3784817 	 5.8486790 	 533.9629 	 1.068 	 95.319
0.3824498 	 5.9806936 	 543.4766 	 1.069 	 95.335
0.3863544 	 6.1182699 	 552.9540 	 1.070 	 95.333
0.3901955 	 6.2527964 	 562.2205 	 1.071 	 95.300
0.3939742 	 6.3906521 	 569.4459 	 1.072 	 95.288
0.3976915 	 6.5296623 	 579.7303 	 1.072 	 95.273
0.4013501 	 6.6697158 	 590.2628 	 1.073 	 95.276
0.4049518 	 6.8104825 	 602.7808 	 1.073 	 95.266
0.4084963 	 6.9543337 	 613.8924 	 1.074 	 95.263
0.4119864 	 7.1000610 	 626.9373 	 1.075 	 95.260
0.4154244 	 7.2425449 	 637.3229 	 1.075 	 95.213
0.4188102 	 7.3934882 	 644.0138 	 1.075 	 95.266
0.4221459 	 7.5404567 	 650.1624 	 1.076 	 95.216
0.4254308 	 7.6913378 	 663.9387 	 1.076 	 95.230
0.4286680 	 7.8433727 	 677.3985 	 1.077 	 95.234
0.4318597 	 7.9937304 	 689.8371 	 1.077 	 95.170
0.4350049 	 8.1507283 	 706.2327 	 1.078 	 95.198
0.4381022 	 8.3021482 	 714.1040 	 1.079 	 95.160
0.4411578 	 8.4627014 	 726.7039 	 1.079 	 95.214
0.4441685 	 8.6205251 	 743.3803 	 1.080 	 95.181
0.4471370 	 8.7792665 	 753.4298 	 1.080 	 95.161
0.4500654 	 8.9396312 	 764.6255 	 1.080 	 95.157
0.4529524 	 9.1025321 	 771.2377 	 1.080 	 95.137
0.4557993 	 9.2670336 	 782.6094 	 1.081 	 95.152
0.4586094 	 9.4309624 	 793.1595 	 1.082 	 95.135
0.4613807 	 9.5971342 	 803.2430 	 1.082 	 95.110
0.4641143 	 9.7676971 	 815.8133 	 1.082 	 95.133
0.4668121 	 9.9344542 	 830.9660 	 1.083 	 95.116
0.4694747 	 10.1046518 	 840.8263 	 1.083 	 95.126
0.4720994 	 10.2783169 	 846.5519 	 1.085 	 95.102
0.4746931 	 10.4490397 	 858.8526 	 1.084 	 95.105
0.4772545 	 10.6244571 	 867.1980 	 1.084 	 95.110
0.4797827 	 10.8000031 	 880.8156 	 1.084 	 95.091
0.4822774 	 10.9806620 	 894.1479 	 1.085 	 95.119
0.4847424 	 11.1542725 	 906.1207 	 1.085 	 95.079
0.4871762 	 11.3349941 	 916.4757 	 1.085 	 95.078
0.4895787 	 11.5169023 	 928.9776 	 1.085 	 95.081
0.4919522 	 11.7006873 	 937.4402 	 1.086 	 95.054
0.4942937 	 11.8861191 	 942.3405 	 1.086 	 95.045
0.4966090 	 12.0712479 	 954.2323 	 1.086 	 95.063
0.4988954 	 12.2552983 	 969.3108 	 1.086 	 95.060
0.5011547 	 12.4447819 	 982.6783 	 1.087 	 95.043
0.5033889 	 12.6298087 	 995.4952 	 1.087 	 95.035
0.5055935 	 12.8219488 	 1008.3675 	 1.087 	 95.029
0.5077763 	 13.0133165 	 1019.8660 	 1.087 	 95.047
0.5099311 	 13.2099938 	 1032.4190 	 1.087 	 95.025
0.5120609 	 13.4040197 	 1045.9424 	 1.087 	 95.013
0.5141652 	 13.6029102 	 1058.6639 	 1.087 	 95.015
0.5162471 	 13.8013629 	 1067.7266 	 1.087 	 95.015
0.5183038 	 13.9931650 	 1071.0356 	 1.088 	 95.013
0.5203369 	 14.1926176 	 1087.0988 	 1.088 	 94.976
0.5223451 	 14.3991351 	 1096.1075 	 1.088 	 95.005
0.5243343 	 14.6027652 	 1112.3138 	 1.087 	 95.018
0.5262995 	 14.8068349 	 1129.8590 	 1.088 	 94.978
0.5282429 	 15.0110336 	 1139.5741 	 1.089 	 94.978
0.5301656 	 15.2206652 	 1156.3508 	 1.088 	 94.989
0.5320694 	 15.4280220 	 1164.8608 	 1.088 	 94.984
0.5339508 	 15.6370731 	 1175.0487 	 1.088 	 94.975
0.5358124 	 15.8497796 	 1188.1648 	 1.088 	 94.955
0.5376540 	 16.0606426 	 1195.6953 	 1.087 	 94.946
0.5394754 	 16.2811306 	 1208.7468 	 1.087 	 94.966
0.5412777 	 16.4956930 	 1221.6662 	 1.087 	 94.940
0.5430614 	 16.7147987 	 1233.6291 	 1.087 	 94.950
0.5448229 	 16.9327555 	 1255.2516 	 1.086 	 94.938
0.5465678 	 17.1532738 	 1271.9803 	 1.086 	 94.928
0.5482936 	 17.3753567 	 1295.4034 	 1.086 	 94.931
0.5500027 	 17.5943884 	 1321.9791 	 1.085 	 94.916
0.5516943 	 17.8142258 	 1348.3090 	 1.085 	 94.903
0.5533678 	 18.0449130 	 1390.7620 	 1.084 	 94.905
0.5550235 	 18.2668188 	 1458.7815 	 1.084 	 94.916
0.5566638 	 18.4931094 	 1548.5682 	 1.084 	 94.904
0.5582886 	 18.7230225 	 1652.5667 	 1.084 	 94.890
0.5598958 	 18.9508982 	 1848.7086 	 1.084 	 94.894
0.5614883 	 19.1846990 	 2117.5237 	 1.084 	 94.892
0.5630640 	 19.4083726 	 2552.3616 	 1.084 	 94.902
0.5646242 	 19.6389952 	 3247.2678 	 1.084 	 94.866
0.5661705 	 19.8781382 	 4326.2338 	 1.083 	 94.870
0.5677019 	 20.1119054 	 6020.3931 	 1.084 	 94.877
0.5692184 	 20.3578476 	 8468.2439 	 1.084 	 94.893
0.5707189 	 20.5977058 	 12179.1913 	 1.084 	 94.908
0.5722053 	 20.8492748 	 16608.5321 	 1.084 	 94.881
0.5736767 	 21.1012435 	 22474.3735 	 1.084 	 94.877
0.5751338 	 21.3665170 	 29310.5037 	 1.084 	 94.885
0.5765741 	 21.6452480 	 37271.4182 	 1.084 	 94.886
0.5779982 	 21.9238793 	 47102.5070 	 1.085 	 94.878
0.5794063 	 22.2207300 	 58133.1537 	 1.085 	 94.848
0.5807979 	 22.5353471 	 70605.8664 	 1.085 	 94.879
0.5821718 	 22.8644320 	 82758.0020 	 1.086 	 94.862
0.5835294 	 23.1946319 	 95797.0623 	 1.087 	 94.857
0.5848684 	 23.5521357 	 108652.1295 	 1.088 	 94.842
0.5861893 	 23.9195669 	 122958.5662 	 1.089 	 94.847
0.5874926 	 24.2953583 	 134459.5492 	 1.090 	 94.836
0.5887768 	 24.6823293 	 149048.4100 	 1.091 	 94.834
0.5900418 	 25.0825841 	 161728.2839 	 1.092 	 94.803
0.5912890 	 25.4941913 	 173554.2736 	 1.091 	 94.798
0.5925175 	 25.9171704 	 185591.6898 	 1.093 	 94.807
0.5937276 	 26.3504277 	 199432.4479 	 1.094 	 94.825
0.5949195 	 26.7853970 	 212334.1173 	 1.095 	 94.810
0.5960940 	 27.2386190 	 226338.4823 	 1.097 	 94.829
0.5972506 	 27.6851066 	 243498.4998 	 1.098 	 94.758
0.5983913 	 28.1438697 	 256058.7577 	 1.099 	 94.794
0.5995137 	 28.6248333 	 269365.5720 	 1.099 	 94.774
0.6006180 	 29.1148748 	 281585.4847 	 1.100 	 94.815
0.6017054 	 29.6045348 	 294188.0359 	 1.101 	 94.815
0.6027759 	 30.1061976 	 310279.4629 	 1.102 	 94.792
0.6038301 	 30.6193391 	 319670.4581 	 1.104 	 94.787
0.6048670 	 31.1440997 	 330450.6459 	 1.104 	 94.797
0.6058873 	 31.6884326 	 336793.8466 	 1.104 	 94.780
0.6068922 	 32.2418952 	 341736.5038 	 1.106 	 94.789
0.6078814 	 32.8087424 	 348090.4817 	 1.106 	 94.772
0.6088534 	 33.3932523 	 346660.0350 	 1.106 	 94.738
0.6098097 	 33.9877534 	 347319.1998 	 1.107 	 94.754
0.6107497 	 34.6048506 	 341548.1089 	 1.107 	 94.741
0.6116735 	 35.2348523 	 336818.5231 	 1.107 	 94.749
0.6125819 	 35.8837369 	 331756.1629 	 1.107 	 94.733
0.6134756 	 36.5247879 	 320051.3555 	 1.107 	 94.755
0.6143538 	 37.1751646 	 308762.5580 	 1.106 	 94.700
0.6152177 	 37.8476281 	 296099.0154 	 1.105 	 94.703
0.6160671 	 38.5353641 	 282124.0205 	 1.104 	 94.693
0.6169018 	 39.2230170 	 267132.0409 	 1.103 	 94.697
0.6177231 	 39.9322722 	 251324.0078 	 1.104 	 94.710
0.6185299 	 40.6042221 	 234874.6587 	 1.103 	 94.693
0.6193239 	 41.3027747 	 218897.9891 	 1.102 	 94.678
0.6201058 	 41.9897558 	 209220.3727 	 1.102 	 94.698
0.6208760 	 42.6686916 	 202212.8040 	 1.101 	 94.697
0.6216340 	 43.3467299 	 205887.1830 	 1.101 	 94.713
0.6223814 	 43.9999332 	 219573.1230 	 1.102 	 94.712
0.6231184 	 44.6781191 	 244807.4831 	 1.102 	 94.765
0.6238448 	 45.3257501 	 284867.4776 	 1.103 	 94.774
0.6245619 	 46.0053359 	 337606.5097 	 1.105 	 94.800
0.6252685 	 46.7022606 	 400848.2219 	 1.109 	 94.835
0.6259653 	 47.4382833 	 469451.1600 	 1.112 	 94.918
0.6266516 	 48.1591890 	 541817.0538 	 1.116 	 94.909
0.6273276 	 48.9386509 	 610178.6568 	 1.121 	 94.958
0.6279927 	 49.7782075 	 673597.7417 	 1.126 	 94.979
0.6286475 	 50.6371082 	 730441.1878 	 1.131 	 95.020
0.6292907 	 51.5510910 	 775186.1473 	 1.135 	 95.053
0.6299239 	 52.4747242 	 813880.8093 	 1.140 	 95.024
