N=100 	 R=1000000 	 s=1 	 Save [density, Z, rho_t, like/unlike, events per sweep]
0.0001334 	 1.0005095 	 1.1027 	 1.003 	 10.124
0.0132533 	 1.1625468 	 12.2140 	 0.951 	 46.783
0.0260786 	 1.1528130 	 22.9954 	 1.004 	 78.897
0.0384922 	 1.1917348 	 33.4128 	 1.013 	 88.234
0.0505057 	 1.2395025 	 43.8402 	 1.016 	 92.025
0.0621511 	 1.2920823 	 54.1854 	 1.018 	 93.819
0.0734558 	 1.3482616 	 64.5949 	 1.018 	 94.795
0.0844181 	 1.4076611 	 75.3286 	 1.020 	 95.294
0.0950666 	 1.4695077 	 85.5535 	 1.021 	 95.527
0.1054050 	 1.5338344 	 95.3949 	 1.022 	 95.683
0.1154512 	 1.5999958 	 106.1092 	 1.024 	 95.738
0.1252119 	 1.6684168 	 116.7475 	 1.024 	 95.811
0.1347095 	 1.7384499 	 126.9036 	 1.026 	 95.813
0.1439405 	 1.8101812 	 138.5158 	 1.027 	 95.897
0.1529260 	 1.8839808 	 149.2739 	 1.028 	 95.876
0.1616875 	 1.9597679 	 159.5773 	 1.030 	 95.840
0.1702219 	 2.0368041 	 171.3758 	 1.032 	 95.807
0.1785415 	 2.1157038 	 182.3680 	 1.032 	 95.795
0.1866483 	 2.1961718 	 192.6653 	 1.034 	 95.745
0.1945541 	 2.2785990 	 203.3414 	 1.035 	 95.783
0.2022635 	 2.3621049 	 211.9891 	 1.036 	 95.724
0.2097928 	 2.4477246 	 220.9953 	 1.037 	 95.722
0.2171399 	 2.5341703 	 231.7097 	 1.039 	 95.694
0.2243157 	 2.6226494 	 243.4120 	 1.040 	 95.663
0.2313189 	 2.7124201 	 252.8540 	 1.040 	 95.664
0.2381694 	 2.8044628 	 263.1469 	 1.042 	 95.662
0.2448602 	 2.8974317 	 273.2323 	 1.043 	 95.641
0.2514080 	 2.9923015 	 284.0702 	 1.044 	 95.636
0.2578061 	 3.0883613 	 295.3992 	 1.046 	 95.617
0.2640681 	 3.1857184 	 308.2986 	 1.047 	 95.578
0.2702004 	 3.2854973 	 319.0148 	 1.048 	 95.573
0.2762000 	 3.3856414 	 330.8908 	 1.049 	 95.560
0.2820759 	 3.4884749 	 345.7715 	 1.050 	 95.554
0.2878273 	 3.5920535 	 356.3485 	 1.051 	 95.544
0.2934645 	 3.6979958 	 364.9553 	 1.051 	 95.538
0.2989885 	 3.8051710 	 375.1638 	 1.053 	 95.530
0.3043983 	 3.9126406 	 386.3849 	 1.054 	 95.490
0.3097013 	 4.0228478 	 398.6560 	 1.055 	 95.496
0.3149022 	 4.1338056 	 407.5951 	 1.055 	 95.501
0.3200050 	 4.2479010 	 414.3353 	 1.056 	 95.493
0.3250129 	 4.3618198 	 424.5523 	 1.057 	 95.459
0.3299271 	 4.4780955 	 437.7392 	 1.059 	 95.462
0.3347465 	 4.5944598 	 451.0726 	 1.059 	 95.411
0.3394812 	 4.7132223 	 457.9758 	 1.060 	 95.415
0.3441249 	 4.8339554 	 472.2018 	 1.062 	 95.425
0.3486870 	 4.9561026 	 481.0395 	 1.063 	 95.426
0.3531695 	 5.0776892 	 487.4125 	 1.063 	 95.388
0.3575734 	 5.2037014 	 495.1409 	 1.064 	 95.376
0.3618996 	 5.3288920 	 504.2570 	 1.065 	 95.354
0.3661511 	 5.4576549 	 518.4584 	 1.065 	 95.379
0.3703282 	 5.5869493 	 529.3433 	 1.066 	 95.353
0.3744375 	 5.7169991 	 537.3172 	 1.067 	 95.327
0.3784740 	 5.8480696 	 549.6094 	 1.068 	 95.335
0.3824459 	 5.9805931 	 560.4179 	 1.069 	 95.311
0.3863520 	 6.1175997 	 571.1524 	 1.070 	 95.317
0.3901934 	 6.2514060 	 583.6469 	 1.071 	 95.264
0.3939695 	 6.3890822 	 595.3763 	 1.071 	 95.257
0.3976888 	 6.5279628 	 604.9591 	 1.072 	 95.271
0.4013475 	 6.6693080 	 607.0908 	 1.073 	 95.260
0.4049492 	 6.8107409 	 620.7350 	 1.073 	 95.265
0.4084992 	 6.9541403 	 638.4084 	 1.074 	 95.247
0.4119916 	 7.0990943 	 647.9190 	 1.075 	 95.249
0.4154299 	 7.2448752 	 656.0578 	 1.075 	 95.252
0.4188164 	 7.3931221 	 661.6682 	 1.076 	 95.236
0.4221508 	 7.5413660 	 673.5129 	 1.076 	 95.228
0.4254372 	 7.6915184 	 690.7840 	 1.077 	 95.243
0.4286770 	 7.8433622 	 704.6032 	 1.078 	 95.243
0.4318669 	 7.9948927 	 709.6104 	 1.078 	 95.194
0.4350067 	 8.1493648 	 716.6890 	 1.079 	 95.192
0.4381061 	 8.3039202 	 723.3260 	 1.078 	 95.178
0.4411571 	 8.4625351 	 731.4822 	 1.079 	 95.172
0.4441682 	 8.6190393 	 745.1793 	 1.079 	 95.170
0.4471351 	 8.7785900 	 760.7183 	 1.080 	 95.166
0.4500643 	 8.9396231 	 772.1360 	 1.081 	 95.162
0.4529536 	 9.1020484 	 783.1895 	 1.082 	 95.141
0.4558001 	 9.2682374 	 804.8964 	 1.083 	 95.163
0.4586091 	 9.4300602 	 812.9657 	 1.082 	 95.154
0.4613809 	 9.5994811 	 821.4582 	 1.083 	 95.149
0.4641148 	 9.7648445 	 829.4654 	 1.084 	 95.132
0.4668131 	 9.9344318 	 838.9671 	 1.084 	 95.129
0.4694764 	 10.1035868 	 849.8323 	 1.084 	 95.088
0.4721041 	 10.2777507 	 855.3701 	 1.084 	 95.136
0.4746981 	 10.4499780 	 860.6994 	 1.085 	 95.099
0.4772566 	 10.6267747 	 864.3707 	 1.085 	 95.123
0.4797832 	 10.8007711 	 878.0923 	 1.084 	 95.092
0.4822788 	 10.9794180 	 892.8249 	 1.085 	 95.082
0.4847424 	 11.1578639 	 895.0402 	 1.085 	 95.107
0.4871759 	 11.3359898 	 908.1119 	 1.085 	 95.066
0.4895788 	 11.5172580 	 917.5398 	 1.086 	 95.091
0.4919512 	 11.7000144 	 927.2652 	 1.085 	 95.048
0.4942961 	 11.8844628 	 935.9450 	 1.086 	 95.087
0.4966113 	 12.0714149 	 942.8364 	 1.086 	 95.075
0.4988973 	 12.2542333 	 955.3285 	 1.086 	 95.048
0.5011580 	 12.4404842 	 969.7300 	 1.086 	 95.054
0.5033909 	 12.6300139 	 983.4966 	 1.087 	 95.039
0.5055992 	 12.8250166 	 998.6054 	 1.087 	 95.040
0.5077815 	 13.0178496 	 1013.5117 	 1.086 	 95.064
0.5099347 	 13.2109575 	 1024.9042 	 1.086 	 95.035
0.5120654 	 13.4045374 	 1036.7129 	 1.086 	 94.995
0.5141692 	 13.6018762 	 1047.8807 	 1.087 	 95.012
0.5162514 	 13.7985367 	 1065.5052 	 1.088 	 94.999
0.5183087 	 13.9956852 	 1078.6157 	 1.088 	 94.995
0.5203421 	 14.1992522 	 1084.8573 	 1.088 	 95.017
0.5223529 	 14.3978402 	 1096.9701 	 1.088 	 94.989
0.5243410 	 14.5995608 	 1107.6125 	 1.088 	 94.999
0.5263061 	 14.7991625 	 1118.2415 	 1.088 	 94.964
0.5282480 	 15.0140830 	 1126.4821 	 1.088 	 94.980
0.5301711 	 15.2234059 	 1142.0967 	 1.087 	 94.993
0.5320736 	 15.4312845 	 1150.3912 	 1.088 	 94.955
0.5339545 	 15.6402862 	 1161.8982 	 1.088 	 94.973
0.5358140 	 15.8534272 	 1180.1291 	 1.088 	 94.973
0.5376538 	 16.0691486 	 1196.2721 	 1.088 	 94.987
0.5394754 	 16.2820490 	 1217.2607 	 1.087 	 94.941
0.5412768 	 16.4970889 	 1237.3990 	 1.088 	 94.934
0.5430575 	 16.7183584 	 1274.9152 	 1.087 	 94.962
0.5448219 	 16.9371545 	 1298.4768 	 1.086 	 94.930
0.5465656 	 17.1509542 	 1322.3739 	 1.087 	 94.931
0.5482922 	 17.3746480 	 1352.5441 	 1.087 	 94.931
0.5500010 	 17.6032476 	 1387.6605 	 1.086 	 94.926
0.5516924 	 17.8233653 	 1426.8976 	 1.086 	 94.912
0.5533647 	 18.0537245 	 1478.0116 	 1.085 	 94.916
0.5550201 	 18.2884867 	 1531.7902 	 1.085 	 94.925
0.5566584 	 18.5180806 	 1604.8866 	 1.084 	 94.911
0.5582795 	 18.7494830 	 1701.5581 	 1.084 	 94.895
0.5598841 	 18.9890111 	 1795.3270 	 1.084 	 94.888
0.5614722 	 19.2264144 	 1948.0737 	 1.083 	 94.887
0.5630427 	 19.4674267 	 2106.3694 	 1.083 	 94.879
0.5645981 	 19.7086938 	 2299.6078 	 1.084 	 94.860
0.5661361 	 19.9520433 	 2519.7470 	 1.084 	 94.907
0.5676615 	 20.1955410 	 2873.6528 	 1.083 	 94.876
0.5691703 	 20.4425179 	 3294.8403 	 1.083 	 94.878
0.5706645 	 20.6948303 	 3905.2071 	 1.084 	 94.880
0.5721441 	 20.9526812 	 4644.6693 	 1.084 	 94.888
0.5736077 	 21.1972486 	 5603.8642 	 1.085 	 94.850
0.5750568 	 21.4559167 	 7019.0761 	 1.086 	 94.840
0.5764910 	 21.7089978 	 9067.8075 	 1.087 	 94.829
0.5779105 	 21.9702408 	 11778.1670 	 1.089 	 94.837
0.5793173 	 22.2369274 	 15550.2220 	 1.092 	 94.828
0.5807088 	 22.5088171 	 20574.9547 	 1.093 	 94.868
0.5820852 	 22.7806053 	 27410.2425 	 1.096 	 94.827
0.5834497 	 23.0563888 	 36512.6599 	 1.100 	 94.818
0.5848001 	 23.3400799 	 48369.2218 	 1.103 	 94.803
0.5861356 	 23.6380033 	 62533.1630 	 1.108 	 94.815
0.5874566 	 23.9453528 	 79031.2279 	 1.112 	 94.798
0.5887612 	 24.2650817 	 98431.3719 	 1.117 	 94.824
0.5900514 	 24.5941338 	 118795.6406 	 1.121 	 94.767
0.5913261 	 24.9464418 	 140522.4106 	 1.126 	 94.767
0.5925837 	 25.3064421 	 162177.5482 	 1.130 	 94.768
0.5938251 	 25.6901260 	 182869.6100 	 1.133 	 94.751
0.5950492 	 26.0947401 	 202404.9458 	 1.137 	 94.759
0.5962563 	 26.5070215 	 220890.4235 	 1.140 	 94.724
0.5974468 	 26.9385074 	 238468.8020 	 1.142 	 94.725
0.5986187 	 27.3740021 	 254250.2370 	 1.145 	 94.712
0.5997744 	 27.8299241 	 269927.0700 	 1.146 	 94.697
0.6009126 	 28.2879507 	 286462.9876 	 1.148 	 94.703
0.6020336 	 28.7673129 	 302557.2661 	 1.149 	 94.692
0.6031365 	 29.2490940 	 318381.1904 	 1.149 	 94.683
0.6042235 	 29.7329937 	 335925.9724 	 1.150 	 94.655
0.6052940 	 30.2406948 	 351971.9628 	 1.150 	 94.613
0.6063467 	 30.7491987 	 370068.9642 	 1.150 	 94.631
0.6073838 	 31.2706454 	 388797.5107 	 1.149 	 94.643
0.6084049 	 31.7987979 	 406064.6646 	 1.149 	 94.618
0.6094102 	 32.3354736 	 425218.2800 	 1.147 	 94.612
0.6103995 	 32.8814498 	 442744.0227 	 1.146 	 94.573
0.6113735 	 33.4461866 	 459158.5682 	 1.146 	 94.589
0.6123327 	 34.0178577 	 474691.0864 	 1.144 	 94.563
0.6132767 	 34.6128112 	 489184.6721 	 1.143 	 94.563
0.6142049 	 35.2195294 	 502982.5909 	 1.143 	 94.534
0.6151178 	 35.8369278 	 515359.8268 	 1.142 	 94.501
0.6160158 	 36.4934774 	 525589.4874 	 1.142 	 94.504
0.6168989 	 37.1373801 	 535648.0962 	 1.142 	 94.455
0.6177660 	 37.8320511 	 542570.4369 	 1.142 	 94.453
0.6186187 	 38.5338556 	 548005.4282 	 1.143 	 94.428
0.6194568 	 39.2544396 	 552507.1038 	 1.144 	 94.423
0.6202799 	 39.9978269 	 554692.3138 	 1.145 	 94.396
0.6210880 	 40.7751771 	 556346.5760 	 1.147 	 94.408
0.6218820 	 41.5428149 	 557549.9786 	 1.148 	 94.393
0.6226615 	 42.3597285 	 557743.2800 	 1.150 	 94.376
0.6234268 	 43.1688931 	 554515.6929 	 1.152 	 94.385
0.6241783 	 44.0198827 	 552520.4788 	 1.154 	 94.378
0.6249160 	 44.8866246 	 548240.0793 	 1.157 	 94.391
0.6256404 	 45.7567934 	 543230.2058 	 1.160 	 94.389
0.6263506 	 46.6526241 	 536854.7098 	 1.162 	 94.387
0.6270475 	 47.5809101 	 532171.1255 	 1.165 	 94.402
0.6277313 	 48.5348789 	 526733.1763 	 1.168 	 94.421
0.6284023 	 49.4881698 	 519584.9376 	 1.171 	 94.455
0.6290609 	 50.4519262 	 512760.3816 	 1.174 	 94.480
0.6297070 	 51.4433794 	 507434.7999 	 1.178 	 94.514
