N=100 	 R=1000000 	 s=1 	 Save [density, Z, rho_t, like/unlike, events per sweep]
0.0001345 	 1.0005114 	 1.1025 	 0.998 	 10.124
0.0132563 	 1.1627044 	 12.1258 	 0.951 	 46.791
0.0260848 	 1.1528674 	 22.8523 	 1.004 	 78.899
0.0385039 	 1.1917844 	 33.4516 	 1.013 	 88.234
0.0505182 	 1.2395012 	 43.7318 	 1.017 	 92.010
0.0621630 	 1.2921762 	 54.6340 	 1.018 	 93.807
0.0734590 	 1.3482228 	 65.5056 	 1.019 	 94.741
0.0844246 	 1.4075696 	 75.2149 	 1.020 	 95.203
0.0950591 	 1.4694425 	 85.5660 	 1.021 	 95.496
0.1053936 	 1.5336397 	 96.4982 	 1.022 	 95.651
0.1154307 	 1.5999022 	 106.1284 	 1.024 	 95.754
0.1251901 	 1.6681934 	 116.9983 	 1.024 	 95.787
0.1346863 	 1.7384145 	 127.1284 	 1.026 	 95.798
0.1439254 	 1.8098300 	 136.8694 	 1.027 	 95.860
0.1529162 	 1.8840543 	 147.0842 	 1.029 	 95.871
0.1616770 	 1.9593397 	 156.7535 	 1.030 	 95.797
0.1702082 	 2.0370123 	 167.8103 	 1.031 	 95.812
0.1785291 	 2.1157203 	 178.1173 	 1.033 	 95.797
0.1866307 	 2.1961120 	 188.4310 	 1.034 	 95.777
0.1945324 	 2.2780973 	 199.2766 	 1.035 	 95.746
0.2022449 	 2.3618835 	 210.3387 	 1.036 	 95.723
0.2097715 	 2.4468329 	 221.4326 	 1.037 	 95.695
0.2171253 	 2.5340023 	 231.1664 	 1.039 	 95.707
0.2242964 	 2.6227517 	 242.0506 	 1.040 	 95.699
0.2312997 	 2.7123205 	 254.4657 	 1.041 	 95.651
0.2381518 	 2.8036995 	 263.0933 	 1.042 	 95.652
0.2448418 	 2.8975939 	 274.9575 	 1.043 	 95.651
0.2513930 	 2.9918899 	 283.7194 	 1.044 	 95.624
0.2577931 	 3.0883723 	 292.3362 	 1.045 	 95.617
0.2640537 	 3.1858341 	 302.1977 	 1.047 	 95.604
0.2701877 	 3.2848856 	 311.2909 	 1.048 	 95.591
0.2761905 	 3.3856389 	 321.3505 	 1.049 	 95.559
0.2820620 	 3.4884289 	 331.0392 	 1.049 	 95.553
0.2878211 	 3.5926467 	 343.1555 	 1.051 	 95.526
0.2934578 	 3.6977737 	 356.6021 	 1.052 	 95.529
0.2989818 	 3.8052008 	 368.1762 	 1.053 	 95.498
0.3043965 	 3.9141527 	 379.3459 	 1.054 	 95.518
0.3097000 	 4.0234499 	 387.7378 	 1.054 	 95.490
0.3149009 	 4.1341933 	 395.9488 	 1.056 	 95.491
0.3200074 	 4.2472808 	 408.0919 	 1.057 	 95.477
0.3250118 	 4.3618388 	 418.5573 	 1.057 	 95.459
0.3299254 	 4.4777215 	 429.1028 	 1.059 	 95.437
0.3347438 	 4.5951549 	 440.7420 	 1.060 	 95.464
0.3394777 	 4.7139866 	 452.9798 	 1.060 	 95.418
0.3441239 	 4.8339483 	 461.4731 	 1.061 	 95.413
0.3486855 	 4.9554776 	 469.1631 	 1.063 	 95.398
0.3531700 	 5.0781817 	 480.8383 	 1.064 	 95.376
0.3575717 	 5.2036293 	 491.2000 	 1.064 	 95.383
0.3618975 	 5.3296889 	 497.8145 	 1.065 	 95.381
0.3661512 	 5.4570225 	 510.4189 	 1.066 	 95.354
0.3703269 	 5.5862391 	 517.1305 	 1.067 	 95.329
0.3744320 	 5.7168032 	 525.2287 	 1.067 	 95.344
0.3784685 	 5.8490139 	 538.7180 	 1.068 	 95.320
0.3824359 	 5.9814839 	 548.7391 	 1.068 	 95.315
0.3863391 	 6.1163420 	 561.8138 	 1.069 	 95.309
0.3901790 	 6.2540164 	 577.4835 	 1.071 	 95.326
0.3939582 	 6.3898601 	 585.9194 	 1.071 	 95.288
0.3976759 	 6.5293026 	 596.5320 	 1.072 	 95.284
0.4013361 	 6.6695049 	 610.3213 	 1.072 	 95.277
0.4049399 	 6.8092432 	 622.9131 	 1.073 	 95.270
0.4084865 	 6.9524156 	 633.8190 	 1.073 	 95.259
0.4119780 	 7.0979329 	 639.5460 	 1.075 	 95.252
0.4154166 	 7.2442856 	 652.0715 	 1.075 	 95.234
0.4188017 	 7.3945131 	 658.6483 	 1.075 	 95.256
0.4221397 	 7.5392312 	 674.9859 	 1.076 	 95.196
0.4254266 	 7.6912347 	 681.2951 	 1.076 	 95.225
0.4286644 	 7.8429114 	 694.6476 	 1.077 	 95.211
0.4318557 	 7.9949817 	 700.4974 	 1.078 	 95.211
0.4349983 	 8.1497370 	 704.3946 	 1.078 	 95.190
0.4380968 	 8.3060127 	 715.5080 	 1.079 	 95.186
0.4411507 	 8.4605025 	 729.6107 	 1.079 	 95.189
0.4441603 	 8.6211933 	 740.0199 	 1.080 	 95.175
0.4471300 	 8.7807097 	 754.2040 	 1.080 	 95.195
0.4500572 	 8.9412065 	 765.6043 	 1.080 	 95.163
0.4529456 	 9.1034009 	 772.6263 	 1.081 	 95.179
0.4557911 	 9.2652503 	 782.2464 	 1.081 	 95.137
0.4585956 	 9.4350720 	 787.0828 	 1.083 	 95.175
0.4613629 	 9.5988279 	 795.8800 	 1.083 	 95.137
0.4640952 	 9.7660674 	 808.9034 	 1.083 	 95.147
0.4667938 	 9.9358503 	 819.5056 	 1.083 	 95.148
0.4694567 	 10.1016378 	 832.2560 	 1.084 	 95.102
0.4720837 	 10.2731319 	 848.2460 	 1.084 	 95.080
0.4746782 	 10.4469453 	 856.7928 	 1.084 	 95.116
0.4772380 	 10.6246271 	 864.7799 	 1.085 	 95.114
0.4797653 	 10.7988800 	 882.1487 	 1.085 	 95.104
0.4822606 	 10.9762577 	 893.6014 	 1.085 	 95.097
0.4847257 	 11.1538479 	 903.3401 	 1.086 	 95.076
0.4871591 	 11.3336843 	 912.7876 	 1.086 	 95.085
0.4895624 	 11.5127886 	 926.8766 	 1.085 	 95.049
0.4919362 	 11.6978115 	 940.8576 	 1.085 	 95.059
0.4942820 	 11.8818500 	 948.1465 	 1.086 	 95.052
0.4965985 	 12.0652750 	 958.1329 	 1.086 	 95.049
0.4988872 	 12.2547384 	 969.9963 	 1.086 	 95.066
0.5011487 	 12.4403442 	 982.0356 	 1.086 	 95.042
0.5033831 	 12.6326156 	 993.8036 	 1.086 	 95.035
0.5055883 	 12.8213355 	 1004.5357 	 1.086 	 95.032
0.5077685 	 13.0171172 	 1019.0941 	 1.087 	 95.034
0.5099233 	 13.2061115 	 1028.7416 	 1.087 	 94.985
0.5120549 	 13.4039252 	 1038.9658 	 1.087 	 94.999
0.5141588 	 13.6041674 	 1053.6316 	 1.087 	 95.011
0.5162393 	 13.7974461 	 1057.0858 	 1.087 	 95.031
0.5182963 	 13.9985119 	 1065.2242 	 1.087 	 95.002
0.5203297 	 14.1965144 	 1078.1743 	 1.087 	 94.995
0.5223416 	 14.3988727 	 1089.2920 	 1.087 	 95.008
0.5243301 	 14.5977841 	 1097.1058 	 1.087 	 94.962
0.5262965 	 14.8111187 	 1108.9425 	 1.086 	 94.988
0.5282417 	 15.0142868 	 1129.4179 	 1.087 	 94.986
0.5301637 	 15.2219706 	 1145.0476 	 1.087 	 94.971
0.5320653 	 15.4286568 	 1159.5959 	 1.087 	 94.952
0.5339463 	 15.6434287 	 1177.6893 	 1.087 	 94.954
0.5358074 	 15.8571902 	 1202.3791 	 1.087 	 94.960
0.5376467 	 16.0722635 	 1221.8525 	 1.087 	 94.935
0.5394666 	 16.2855632 	 1239.5351 	 1.087 	 94.924
0.5412674 	 16.5057491 	 1262.1528 	 1.087 	 94.955
0.5430491 	 16.7233776 	 1286.2014 	 1.087 	 94.935
0.5448099 	 16.9435864 	 1311.7419 	 1.087 	 94.919
0.5465528 	 17.1690569 	 1332.1330 	 1.087 	 94.929
0.5482778 	 17.3923728 	 1350.2551 	 1.087 	 94.943
0.5499839 	 17.6152698 	 1373.7109 	 1.087 	 94.911
0.5516727 	 17.8371151 	 1421.9929 	 1.086 	 94.929
0.5533443 	 18.0720603 	 1453.7231 	 1.086 	 94.949
0.5549985 	 18.2969579 	 1505.9351 	 1.086 	 94.894
0.5566353 	 18.5291475 	 1557.7382 	 1.086 	 94.919
0.5582555 	 18.7590841 	 1643.1292 	 1.086 	 94.907
0.5598600 	 19.0011771 	 1754.7191 	 1.085 	 94.905
0.5614463 	 19.2321434 	 1883.4448 	 1.084 	 94.847
0.5630167 	 19.4799301 	 2031.7651 	 1.084 	 94.890
0.5645724 	 19.7152238 	 2231.1478 	 1.083 	 94.880
0.5661129 	 19.9638123 	 2487.2994 	 1.082 	 94.900
0.5676362 	 20.2119909 	 2852.0358 	 1.082 	 94.871
0.5691435 	 20.4612907 	 3325.3086 	 1.083 	 94.859
0.5706361 	 20.7229608 	 3988.1157 	 1.082 	 94.843
0.5721115 	 20.9916979 	 4753.5768 	 1.081 	 94.832
0.5735707 	 21.2626399 	 5683.9107 	 1.080 	 94.791
0.5750139 	 21.5332205 	 7028.6200 	 1.081 	 94.801
0.5764430 	 21.8240136 	 8498.6419 	 1.081 	 94.777
0.5778548 	 22.1096559 	 10231.4626 	 1.081 	 94.774
0.5792497 	 22.4202876 	 12282.6632 	 1.082 	 94.769
0.5806288 	 22.7297281 	 14251.1391 	 1.082 	 94.773
0.5819907 	 23.0494950 	 16551.7908 	 1.081 	 94.747
0.5833361 	 23.3838795 	 18950.7290 	 1.081 	 94.739
0.5846653 	 23.7235766 	 21615.0045 	 1.079 	 94.694
0.5859771 	 24.0681945 	 24856.2624 	 1.078 	 94.714
0.5872720 	 24.4283479 	 28383.0924 	 1.078 	 94.708
0.5885497 	 24.7989514 	 32074.1988 	 1.078 	 94.678
0.5898096 	 25.1771094 	 36642.2384 	 1.078 	 94.676
0.5910540 	 25.5608110 	 41749.6128 	 1.078 	 94.677
0.5922792 	 25.9651229 	 47766.9394 	 1.077 	 94.677
0.5934887 	 26.3601660 	 55543.2929 	 1.077 	 94.647
0.5946808 	 26.7643366 	 65004.9523 	 1.077 	 94.628
0.5958571 	 27.1727047 	 76293.4122 	 1.077 	 94.578
0.5970164 	 27.6052003 	 89101.9324 	 1.078 	 94.563
0.5981593 	 28.0461200 	 102749.5171 	 1.079 	 94.550
0.5992855 	 28.5024157 	 118322.5900 	 1.080 	 94.555
0.6003954 	 28.9798903 	 132533.9889 	 1.081 	 94.555
0.6014884 	 29.4465282 	 149620.2899 	 1.083 	 94.529
0.6025645 	 29.9359883 	 169060.4333 	 1.084 	 94.497
0.6036244 	 30.4409403 	 189411.7650 	 1.086 	 94.483
0.6046680 	 30.9573522 	 208860.0710 	 1.088 	 94.473
0.6056955 	 31.5012107 	 227434.0105 	 1.091 	 94.469
0.6067059 	 32.0427329 	 249046.1562 	 1.092 	 94.428
0.6077002 	 32.6030725 	 269244.4673 	 1.095 	 94.428
0.6086781 	 33.1786687 	 289016.6250 	 1.097 	 94.381
0.6096395 	 33.7850769 	 306696.1098 	 1.098 	 94.434
0.6105849 	 34.3912926 	 324974.5977 	 1.101 	 94.402
0.6115152 	 35.0234298 	 341252.6860 	 1.102 	 94.397
0.6124288 	 35.6626616 	 358570.8108 	 1.104 	 94.401
0.6133268 	 36.3104229 	 375624.4989 	 1.106 	 94.378
0.6142095 	 36.9869182 	 389915.0102 	 1.108 	 94.423
0.6150777 	 37.6541040 	 406734.9044 	 1.110 	 94.405
0.6159313 	 38.3363439 	 422750.0341 	 1.111 	 94.418
0.6167699 	 39.0346730 	 438529.9454 	 1.112 	 94.409
0.6175942 	 39.7412421 	 452551.3255 	 1.114 	 94.413
0.6184050 	 40.4710473 	 468069.2725 	 1.115 	 94.445
0.6192022 	 41.1893748 	 478586.0097 	 1.116 	 94.435
0.6199858 	 41.9351995 	 490754.9821 	 1.116 	 94.502
0.6207564 	 42.6673384 	 502728.4409 	 1.117 	 94.505
0.6215135 	 43.4222457 	 511923.3636 	 1.117 	 94.588
0.6222591 	 44.1928993 	 519195.7195 	 1.118 	 94.586
0.6229921 	 44.9845606 	 527878.9113 	 1.118 	 94.662
0.6237130 	 45.7678532 	 531744.0339 	 1.118 	 94.668
0.6244210 	 46.5930387 	 531626.8771 	 1.119 	 94.710
0.6251176 	 47.4144575 	 528145.3087 	 1.119 	 94.712
0.6258027 	 48.2491845 	 524628.8741 	 1.118 	 94.723
0.6264759 	 49.1253708 	 512571.6100 	 1.116 	 94.780
0.6271384 	 50.0032627 	 500728.2823 	 1.114 	 94.796
0.6277897 	 50.9012048 	 486329.9422 	 1.112 	 94.869
0.6284298 	 51.7920236 	 472090.1601 	 1.108 	 94.903
0.6290597 	 52.7154144 	 459611.4864 	 1.105 	 94.946
0.6296785 	 53.6165459 	 451398.0682 	 1.099 	 94.971
