N=100 	 R=1000000 	 s=1 	 Save [density, Z, rho_t, like/unlike, events per sweep]
0.0001354 	 1.0005128 	 1.1026 	 1.012 	 10.125
0.0132578 	 1.1626059 	 12.2261 	 0.950 	 46.821
0.0260856 	 1.1527909 	 22.9123 	 1.004 	 78.917
0.0384968 	 1.1918443 	 33.5386 	 1.013 	 88.255
0.0505055 	 1.2395226 	 44.1326 	 1.016 	 92.023
0.0621649 	 1.2921875 	 54.2212 	 1.018 	 93.816
0.0734671 	 1.3481551 	 64.2934 	 1.019 	 94.785
0.0844262 	 1.4076208 	 74.4219 	 1.020 	 95.222
0.0950712 	 1.4693316 	 85.1992 	 1.021 	 95.488
0.1054058 	 1.5337839 	 95.4688 	 1.022 	 95.664
0.1154575 	 1.6001160 	 106.0029 	 1.023 	 95.739
0.1252203 	 1.6682780 	 116.2371 	 1.024 	 95.788
0.1347155 	 1.7387593 	 127.0743 	 1.026 	 95.806
0.1439507 	 1.8101146 	 137.4316 	 1.027 	 95.878
0.1529381 	 1.8838833 	 147.1796 	 1.029 	 95.817
0.1616945 	 1.9596833 	 157.9125 	 1.030 	 95.841
0.1702224 	 2.0368555 	 167.7428 	 1.031 	 95.799
0.1785346 	 2.1159486 	 177.5907 	 1.032 	 95.818
0.1866376 	 2.1961190 	 188.9630 	 1.033 	 95.761
0.1945412 	 2.2784160 	 199.6762 	 1.035 	 95.751
0.2022483 	 2.3620924 	 211.3414 	 1.036 	 95.717
0.2097806 	 2.4470420 	 221.3276 	 1.037 	 95.714
0.2171321 	 2.5340641 	 232.4494 	 1.038 	 95.689
0.2243100 	 2.6228637 	 243.4435 	 1.040 	 95.707
0.2313203 	 2.7130533 	 251.5819 	 1.041 	 95.689
0.2381717 	 2.8042135 	 260.4940 	 1.042 	 95.666
0.2448664 	 2.8976608 	 271.6157 	 1.043 	 95.638
0.2514142 	 2.9923107 	 281.0230 	 1.044 	 95.618
0.2578174 	 3.0886165 	 293.4854 	 1.045 	 95.602
0.2640787 	 3.1864749 	 304.9268 	 1.047 	 95.612
0.2702084 	 3.2854531 	 314.4130 	 1.048 	 95.560
0.2762042 	 3.3869021 	 323.8531 	 1.048 	 95.561
0.2820828 	 3.4888117 	 334.7505 	 1.050 	 95.551
0.2878347 	 3.5924796 	 344.6125 	 1.051 	 95.518
0.2934687 	 3.6977732 	 355.9290 	 1.052 	 95.536
0.2989911 	 3.8048096 	 367.2309 	 1.052 	 95.496
0.3044040 	 3.9136615 	 379.2294 	 1.053 	 95.528
0.3097106 	 4.0234520 	 388.5524 	 1.055 	 95.492
0.3149145 	 4.1347808 	 398.2169 	 1.056 	 95.472
0.3200151 	 4.2469137 	 409.7416 	 1.056 	 95.455
0.3250255 	 4.3618757 	 423.9164 	 1.057 	 95.485
0.3299403 	 4.4777609 	 432.4673 	 1.058 	 95.456
0.3347612 	 4.5956713 	 442.7954 	 1.060 	 95.446
0.3394920 	 4.7135706 	 450.9019 	 1.061 	 95.401
0.3441387 	 4.8350073 	 458.2547 	 1.062 	 95.409
0.3487000 	 4.9557063 	 473.3081 	 1.062 	 95.400
0.3531797 	 5.0789571 	 481.7462 	 1.063 	 95.398
0.3575820 	 5.2035551 	 494.3972 	 1.064 	 95.392
0.3619053 	 5.3295899 	 504.1125 	 1.065 	 95.385
0.3661542 	 5.4580177 	 515.0748 	 1.066 	 95.380
0.3703310 	 5.5860120 	 522.1424 	 1.066 	 95.363
0.3744393 	 5.7180106 	 532.1407 	 1.068 	 95.344
0.3784770 	 5.8486184 	 540.2435 	 1.068 	 95.325
0.3824488 	 5.9828261 	 545.0729 	 1.069 	 95.316
0.3863492 	 6.1167320 	 556.4603 	 1.070 	 95.312
0.3901925 	 6.2518026 	 566.4237 	 1.070 	 95.287
0.3939714 	 6.3890719 	 578.4830 	 1.072 	 95.246
0.3976890 	 6.5293304 	 586.8547 	 1.071 	 95.265
0.4013452 	 6.6676349 	 599.4147 	 1.072 	 95.256
0.4049483 	 6.8110349 	 607.9573 	 1.073 	 95.261
0.4084950 	 6.9538727 	 620.9063 	 1.074 	 95.258
0.4119881 	 7.0989009 	 632.3422 	 1.074 	 95.263
0.4154278 	 7.2457934 	 644.5792 	 1.075 	 95.263
0.4188119 	 7.3938968 	 652.1092 	 1.076 	 95.259
0.4221469 	 7.5404880 	 664.8802 	 1.076 	 95.203
0.4254314 	 7.6911122 	 679.4130 	 1.076 	 95.236
0.4286688 	 7.8413145 	 697.1444 	 1.077 	 95.223
0.4318592 	 7.9941595 	 710.0908 	 1.078 	 95.181
0.4350024 	 8.1492644 	 715.7591 	 1.078 	 95.199
0.4381013 	 8.3046989 	 731.1368 	 1.079 	 95.174
0.4411557 	 8.4611988 	 743.1243 	 1.079 	 95.175
0.4441674 	 8.6185804 	 750.9619 	 1.080 	 95.171
0.4471366 	 8.7787600 	 756.6556 	 1.080 	 95.173
0.4500643 	 8.9408960 	 771.1897 	 1.081 	 95.152
0.4529519 	 9.1038104 	 783.9829 	 1.082 	 95.181
0.4558002 	 9.2651108 	 796.7550 	 1.082 	 95.150
0.4586086 	 9.4318949 	 810.8070 	 1.082 	 95.136
0.4613790 	 9.5979669 	 826.4826 	 1.083 	 95.141
0.4641139 	 9.7656232 	 835.2726 	 1.083 	 95.138
0.4668108 	 9.9333106 	 851.3807 	 1.084 	 95.109
0.4694744 	 10.1049209 	 858.0673 	 1.084 	 95.119
0.4721023 	 10.2764455 	 864.2234 	 1.084 	 95.096
0.4746935 	 10.4473995 	 877.5857 	 1.084 	 95.093
0.4772543 	 10.6225855 	 884.6597 	 1.086 	 95.100
0.4797812 	 10.8013908 	 895.8400 	 1.085 	 95.103
0.4822797 	 10.9765653 	 907.8273 	 1.085 	 95.096
0.4847429 	 11.1566251 	 919.5790 	 1.085 	 95.086
0.4871763 	 11.3349419 	 934.0983 	 1.086 	 95.088
0.4895789 	 11.5147740 	 944.0380 	 1.086 	 95.061
0.4919509 	 11.6980713 	 949.4091 	 1.086 	 95.079
0.4942953 	 11.8826625 	 960.8231 	 1.086 	 95.068
0.4966120 	 12.0671691 	 969.6132 	 1.086 	 95.044
0.4989001 	 12.2583456 	 984.2389 	 1.087 	 95.092
0.5011602 	 12.4431203 	 989.3279 	 1.087 	 95.056
0.5033935 	 12.6310716 	 1002.7280 	 1.087 	 95.039
0.5056002 	 12.8258246 	 1017.9942 	 1.086 	 95.063
0.5077811 	 13.0157502 	 1032.5577 	 1.087 	 95.028
0.5099352 	 13.2119093 	 1037.1320 	 1.087 	 95.042
0.5120651 	 13.4016429 	 1046.9659 	 1.087 	 95.027
0.5141695 	 13.6014891 	 1062.8400 	 1.087 	 95.026
0.5162522 	 13.7975760 	 1076.3064 	 1.087 	 95.021
0.5183096 	 13.9977034 	 1089.9040 	 1.088 	 95.014
0.5203433 	 14.1979491 	 1102.4728 	 1.088 	 94.999
0.5223555 	 14.3992225 	 1117.1051 	 1.088 	 95.007
0.5243447 	 14.6004219 	 1123.1250 	 1.088 	 94.987
0.5263096 	 14.8023870 	 1144.3070 	 1.088 	 94.959
0.5282549 	 15.0105110 	 1166.1170 	 1.088 	 94.974
0.5301782 	 15.2177886 	 1183.1306 	 1.088 	 94.934
0.5320796 	 15.4283678 	 1193.7130 	 1.088 	 94.985
0.5339620 	 15.6403917 	 1206.5960 	 1.088 	 94.957
0.5358240 	 15.8568914 	 1232.4134 	 1.088 	 94.985
0.5376630 	 16.0657561 	 1243.8506 	 1.088 	 94.969
0.5394831 	 16.2794178 	 1253.1189 	 1.088 	 94.940
0.5412830 	 16.4944475 	 1279.7207 	 1.088 	 94.929
0.5430658 	 16.7160523 	 1294.3421 	 1.088 	 94.967
0.5448279 	 16.9336830 	 1328.7029 	 1.087 	 94.950
0.5465733 	 17.1551245 	 1351.6338 	 1.086 	 94.921
0.5482992 	 17.3752697 	 1383.1448 	 1.086 	 94.929
0.5500095 	 17.6025615 	 1417.4453 	 1.087 	 94.955
0.5516996 	 17.8246293 	 1460.0940 	 1.087 	 94.944
0.5533737 	 18.0515489 	 1524.9220 	 1.086 	 94.905
0.5550298 	 18.2741437 	 1613.9876 	 1.085 	 94.894
0.5566689 	 18.5077331 	 1719.1184 	 1.085 	 94.916
0.5582916 	 18.7337968 	 1856.1410 	 1.085 	 94.905
0.5598984 	 18.9620671 	 2045.1630 	 1.084 	 94.879
0.5614899 	 19.1987408 	 2330.9956 	 1.083 	 94.911
0.5630650 	 19.4284042 	 2758.9514 	 1.082 	 94.894
0.5646248 	 19.6563623 	 3377.1492 	 1.081 	 94.867
0.5661689 	 19.8950028 	 4348.7802 	 1.081 	 94.886
0.5676986 	 20.1217841 	 5726.1751 	 1.081 	 94.873
0.5692141 	 20.3645033 	 7752.8063 	 1.080 	 94.866
0.5707153 	 20.6058660 	 10861.0020 	 1.079 	 94.870
0.5722006 	 20.8548505 	 15319.9683 	 1.079 	 94.863
0.5736712 	 21.1070337 	 21633.8483 	 1.079 	 94.852
0.5751270 	 21.3626930 	 30035.7246 	 1.078 	 94.837
0.5765689 	 21.6241950 	 41251.7317 	 1.079 	 94.818
0.5779950 	 21.9031444 	 55104.2637 	 1.079 	 94.815
0.5794062 	 22.1981682 	 70941.8600 	 1.080 	 94.789
0.5807991 	 22.4988654 	 91343.5517 	 1.081 	 94.776
0.5821766 	 22.8234876 	 116500.8059 	 1.083 	 94.801
0.5835360 	 23.1411771 	 142867.9592 	 1.085 	 94.742
0.5848796 	 23.4761801 	 168697.2693 	 1.086 	 94.698
0.5862055 	 23.8341991 	 197474.8954 	 1.088 	 94.707
0.5875133 	 24.2054762 	 224587.2059 	 1.091 	 94.710
0.5888020 	 24.5831140 	 250187.9383 	 1.093 	 94.711
0.5900732 	 24.9850141 	 275531.5730 	 1.095 	 94.687
0.5913265 	 25.3986952 	 296289.0693 	 1.098 	 94.671
0.5925603 	 25.8149843 	 314740.9685 	 1.100 	 94.644
0.5937754 	 26.2576132 	 331589.6341 	 1.102 	 94.653
0.5949713 	 26.7044748 	 339818.6500 	 1.105 	 94.626
0.5961488 	 27.1699188 	 343298.1642 	 1.107 	 94.596
0.5973084 	 27.6561601 	 344098.9104 	 1.108 	 94.639
0.5984495 	 28.1265624 	 343671.7561 	 1.110 	 94.586
0.5995714 	 28.6232695 	 335676.0185 	 1.112 	 94.591
0.6006762 	 29.1287316 	 326949.4273 	 1.113 	 94.557
0.6017615 	 29.6405248 	 312987.8132 	 1.114 	 94.559
0.6028302 	 30.1696001 	 297839.8772 	 1.113 	 94.573
0.6038817 	 30.6987651 	 280387.3208 	 1.113 	 94.578
0.6049158 	 31.2376020 	 257687.0360 	 1.112 	 94.571
0.6059336 	 31.7781636 	 237410.2954 	 1.110 	 94.589
0.6069350 	 32.3261237 	 215715.4858 	 1.108 	 94.602
0.6079205 	 32.8785297 	 195840.8326 	 1.107 	 94.620
0.6088915 	 33.4404087 	 178830.5516 	 1.105 	 94.611
0.6098466 	 34.0042408 	 165813.1019 	 1.103 	 94.649
0.6107868 	 34.5799519 	 156836.7426 	 1.100 	 94.674
0.6117125 	 35.1680029 	 152637.7323 	 1.098 	 94.681
0.6126234 	 35.7575514 	 152645.3572 	 1.095 	 94.702
0.6135206 	 36.3532591 	 157114.9171 	 1.093 	 94.716
0.6144034 	 36.9747602 	 164955.0327 	 1.091 	 94.696
0.6152724 	 37.6205062 	 175573.0099 	 1.088 	 94.735
0.6161274 	 38.2731775 	 188622.0020 	 1.087 	 94.717
0.6169682 	 38.9383034 	 202663.8446 	 1.086 	 94.732
0.6177957 	 39.6361073 	 218456.5091 	 1.085 	 94.748
0.6186096 	 40.3486626 	 233256.5654 	 1.084 	 94.771
0.6194090 	 41.0654753 	 247215.3123 	 1.083 	 94.769
0.6201954 	 41.8321600 	 261391.2685 	 1.083 	 94.763
0.6209681 	 42.5882163 	 278226.5173 	 1.083 	 94.748
0.6217277 	 43.3637736 	 295483.4272 	 1.083 	 94.738
0.6224735 	 44.1743078 	 313649.6203 	 1.083 	 94.775
0.6232074 	 44.9896162 	 334349.2382 	 1.084 	 94.768
0.6239281 	 45.8291666 	 355115.7931 	 1.084 	 94.773
0.6246363 	 46.6569264 	 379263.2075 	 1.086 	 94.777
0.6253320 	 47.5036337 	 405528.0862 	 1.086 	 94.774
0.6260153 	 48.3980240 	 430935.2595 	 1.087 	 94.785
0.6266869 	 49.2778774 	 460111.0255 	 1.088 	 94.771
0.6273468 	 50.1850440 	 490148.3382 	 1.088 	 94.770
0.6279944 	 51.1152758 	 520991.0009 	 1.089 	 94.807
0.6286314 	 52.0603371 	 554202.4056 	 1.090 	 94.814
0.6292575 	 53.0202807 	 592525.1435 	 1.090 	 94.805
0.6298730 	 53.9738766 	 631474.3745 	 1.091 	 94.814
