N=60 	 R=1000000 	 s=1 	 Save [density, Z, rho_t, like/unlike, events per sweep]
0.0002265 	 1.0008579 	 1.1027 	 0.988 	 7.113
0.0220552 	 1.1833837 	 11.9960 	 0.960 	 35.105
0.0428476 	 1.2259423 	 22.6640 	 0.998 	 47.954
0.0625766 	 1.3034760 	 33.1996 	 1.006 	 51.557
0.0812841 	 1.3959768 	 43.6280 	 1.008 	 52.651
0.0990818 	 1.4965747 	 53.7209 	 1.009 	 53.136
0.1160457 	 1.6042632 	 64.1414 	 1.012 	 53.360
0.1322212 	 1.7185971 	 74.2696 	 1.014 	 53.464
0.1476578 	 1.8362689 	 84.7661 	 1.014 	 53.585
0.1624251 	 1.9621470 	 95.5075 	 1.017 	 53.575
0.1765453 	 2.0917123 	 105.8142 	 1.018 	 53.550
0.1900740 	 2.2264786 	 116.6077 	 1.021 	 53.527
0.2030483 	 2.3659636 	 126.7253 	 1.023 	 53.513
0.2155044 	 2.5091076 	 136.2662 	 1.025 	 53.504
0.2274768 	 2.6565920 	 147.0391 	 1.027 	 53.459
0.2389855 	 2.8087735 	 158.2835 	 1.029 	 53.456
0.2500680 	 2.9652925 	 168.2761 	 1.031 	 53.442
0.2607432 	 3.1258448 	 178.2416 	 1.033 	 53.419
0.2710356 	 3.2913682 	 187.6922 	 1.034 	 53.428
0.2809806 	 3.4614065 	 198.1076 	 1.037 	 53.418
0.2905813 	 3.6350908 	 207.6445 	 1.039 	 53.402
0.2998500 	 3.8124530 	 218.6465 	 1.040 	 53.389
0.3088178 	 3.9940734 	 227.7139 	 1.043 	 53.364
0.3174971 	 4.1799760 	 238.0037 	 1.044 	 53.351
0.3259015 	 4.3693666 	 249.3578 	 1.046 	 53.346
0.3340503 	 4.5638618 	 259.1908 	 1.048 	 53.328
0.3419427 	 4.7613366 	 269.9230 	 1.051 	 53.312
0.3495961 	 4.9632510 	 282.3103 	 1.053 	 53.289
0.3570224 	 5.1695249 	 293.1088 	 1.054 	 53.289
0.3642366 	 5.3804515 	 303.7540 	 1.056 	 53.281
0.3712447 	 5.5972964 	 314.8679 	 1.058 	 53.271
0.3780552 	 5.8133979 	 325.1865 	 1.060 	 53.260
0.3846740 	 6.0336697 	 335.6268 	 1.061 	 53.216
0.3911197 	 6.2595420 	 347.3827 	 1.064 	 53.235
0.3973939 	 6.4898189 	 358.6641 	 1.066 	 53.188
0.4035011 	 6.7234206 	 369.4163 	 1.067 	 53.208
0.4094486 	 6.9633941 	 377.9499 	 1.069 	 53.204
0.4152475 	 7.2057077 	 391.4261 	 1.071 	 53.166
0.4209016 	 7.4489536 	 402.7163 	 1.071 	 53.157
0.4264106 	 7.6983962 	 411.0138 	 1.073 	 53.142
0.4317841 	 7.9512456 	 423.0798 	 1.075 	 53.112
0.4370274 	 8.2056187 	 434.6078 	 1.074 	 53.105
0.4421479 	 8.4672821 	 448.4143 	 1.078 	 53.097
0.4471482 	 8.7354092 	 454.7258 	 1.079 	 53.063
0.4520306 	 9.0000983 	 465.9089 	 1.080 	 53.053
0.4568038 	 9.2768294 	 478.7916 	 1.082 	 53.064
0.4614729 	 9.5532306 	 485.8924 	 1.081 	 53.055
0.4660349 	 9.8333932 	 495.7977 	 1.082 	 53.042
0.4704954 	 10.1147438 	 502.1535 	 1.084 	 53.030
0.4748619 	 10.4014467 	 513.0238 	 1.085 	 53.028
0.4791300 	 10.6942539 	 525.3974 	 1.085 	 53.021
0.4833132 	 10.9888300 	 536.3730 	 1.087 	 53.012
0.4874082 	 11.2857633 	 549.0426 	 1.088 	 52.981
0.4914196 	 11.5882961 	 556.1265 	 1.088 	 52.968
0.4953456 	 11.8959546 	 564.0852 	 1.088 	 52.986
0.4991933 	 12.1988016 	 576.5061 	 1.089 	 52.935
0.5029612 	 12.5184756 	 585.0624 	 1.088 	 52.951
0.5066587 	 12.8309034 	 593.0273 	 1.089 	 52.920
0.5102830 	 13.1551226 	 604.5818 	 1.090 	 52.927
0.5138357 	 13.4781758 	 618.3168 	 1.090 	 52.909
0.5173233 	 13.8072227 	 634.0138 	 1.090 	 52.897
0.5207443 	 14.1360047 	 653.0476 	 1.090 	 52.868
0.5241027 	 14.4820293 	 666.6373 	 1.091 	 52.899
0.5273966 	 14.8191490 	 681.9137 	 1.090 	 52.891
0.5306308 	 15.1665161 	 698.8446 	 1.091 	 52.879
0.5338042 	 15.5068308 	 712.4995 	 1.090 	 52.870
0.5369199 	 15.8635358 	 728.6604 	 1.090 	 52.859
0.5399800 	 16.2171894 	 748.9419 	 1.090 	 52.842
0.5429881 	 16.5797570 	 774.3002 	 1.090 	 52.847
0.5459395 	 16.9483106 	 805.1442 	 1.089 	 52.845
0.5488431 	 17.3098922 	 832.9106 	 1.090 	 52.796
0.5516939 	 17.6892306 	 880.9282 	 1.088 	 52.814
0.5544951 	 18.0730059 	 943.6379 	 1.088 	 52.829
0.5572470 	 18.4504504 	 1035.1837 	 1.086 	 52.799
0.5599532 	 18.8338242 	 1149.9627 	 1.085 	 52.784
0.5626125 	 19.2373876 	 1313.2765 	 1.084 	 52.807
0.5652298 	 19.6383050 	 1564.2631 	 1.083 	 52.798
0.5677996 	 20.0521497 	 1881.5932 	 1.081 	 52.790
0.5703259 	 20.4833784 	 2320.1973 	 1.081 	 52.779
0.5728066 	 20.9059334 	 2935.3624 	 1.078 	 52.762
0.5752420 	 21.3606540 	 3839.0626 	 1.076 	 52.746
0.5776358 	 21.8298155 	 5018.1451 	 1.074 	 52.753
0.5799830 	 22.3047286 	 6547.3367 	 1.071 	 52.749
0.5822879 	 22.8043479 	 8628.0314 	 1.069 	 52.748
0.5845492 	 23.3196875 	 11219.6406 	 1.065 	 52.765
0.5867662 	 23.8601063 	 14761.2049 	 1.062 	 52.784
0.5889382 	 24.4168698 	 19167.6058 	 1.060 	 52.802
0.5910664 	 25.0043664 	 24989.9210 	 1.058 	 52.803
0.5931497 	 25.5996049 	 32950.2732 	 1.057 	 52.810
0.5951890 	 26.2214010 	 43495.4598 	 1.057 	 52.832
0.5971860 	 26.8614169 	 56533.3298 	 1.058 	 52.858
0.5991376 	 27.5352707 	 72335.8457 	 1.061 	 52.859
0.6010452 	 28.2574424 	 90903.5143 	 1.065 	 52.905
0.6029102 	 28.9973766 	 109768.9631 	 1.069 	 52.908
0.6047297 	 29.7900018 	 130915.3470 	 1.075 	 52.925
0.6065015 	 30.6293379 	 151157.3256 	 1.081 	 52.914
0.6082284 	 31.5149316 	 171713.1125 	 1.088 	 52.923
0.6099097 	 32.4438236 	 189182.7779 	 1.095 	 52.934
0.6115439 	 33.4349377 	 206730.4337 	 1.103 	 52.953
0.6131339 	 34.4541999 	 223525.8683 	 1.110 	 52.927
0.6146788 	 35.4995289 	 239985.3546 	 1.116 	 52.903
0.6161800 	 36.6006620 	 259109.1604 	 1.124 	 52.889
0.6176382 	 37.7408932 	 281015.8829 	 1.130 	 52.872
0.6190555 	 38.9246788 	 304664.4526 	 1.138 	 52.855
0.6204305 	 40.1302484 	 332342.0080 	 1.145 	 52.829
0.6217658 	 41.3954291 	 365200.6165 	 1.151 	 52.814
0.6230628 	 42.6937846 	 400066.3789 	 1.158 	 52.802
0.6243221 	 44.0341832 	 437888.1540 	 1.165 	 52.793
0.6255453 	 45.3947646 	 472228.2504 	 1.171 	 52.761
0.6267313 	 46.8099501 	 501971.9954 	 1.177 	 52.754
0.6278838 	 48.2475234 	 520568.0907 	 1.181 	 52.768
0.6290034 	 49.7000121 	 527239.1224 	 1.186 	 52.735
