N=60 	 R=1000000 	 s=1 	 Save [density, Z, rho_t, like/unlike, events per sweep]
0.0002261 	 1.0008544 	 1.1026 	 0.987 	 7.113
0.0220543 	 1.1833059 	 12.0259 	 0.960 	 35.131
0.0428456 	 1.2259603 	 22.5726 	 0.998 	 47.972
0.0625743 	 1.3034713 	 33.0123 	 1.007 	 51.542
0.0812886 	 1.3961823 	 43.2637 	 1.009 	 52.645
0.0990826 	 1.4967798 	 53.8258 	 1.010 	 53.131
0.1160319 	 1.6043181 	 64.3723 	 1.011 	 53.366
0.1321892 	 1.7182159 	 74.7127 	 1.013 	 53.485
0.1476269 	 1.8356344 	 84.7605 	 1.015 	 53.570
0.1623896 	 1.9616366 	 96.0129 	 1.017 	 53.555
0.1764983 	 2.0916521 	 107.1289 	 1.018 	 53.545
0.1900359 	 2.2256999 	 116.5078 	 1.021 	 53.509
0.2030022 	 2.3655145 	 127.6369 	 1.023 	 53.509
0.2154688 	 2.5087510 	 139.3784 	 1.025 	 53.480
0.2274432 	 2.6563880 	 149.9344 	 1.027 	 53.467
0.2389571 	 2.8083683 	 160.2564 	 1.029 	 53.442
0.2500472 	 2.9651025 	 170.5237 	 1.031 	 53.443
0.2607241 	 3.1265247 	 180.7688 	 1.033 	 53.454
0.2710214 	 3.2912151 	 191.2815 	 1.035 	 53.413
0.2809511 	 3.4610169 	 202.3255 	 1.037 	 53.420
0.2905530 	 3.6344740 	 213.9446 	 1.038 	 53.399
0.2998255 	 3.8104423 	 223.5687 	 1.040 	 53.376
0.3087912 	 3.9931802 	 233.2691 	 1.043 	 53.371
0.3174691 	 4.1797042 	 244.0164 	 1.044 	 53.361
0.3258722 	 4.3682676 	 254.3644 	 1.046 	 53.333
0.3340098 	 4.5620715 	 265.8852 	 1.048 	 53.324
0.3418990 	 4.7608596 	 274.7856 	 1.050 	 53.322
0.3495553 	 4.9633168 	 283.6178 	 1.052 	 53.307
0.3569892 	 5.1680029 	 294.9989 	 1.054 	 53.299
0.3642038 	 5.3794867 	 304.7704 	 1.056 	 53.283
0.3712088 	 5.5927734 	 314.0819 	 1.058 	 53.252
0.3780271 	 5.8110064 	 324.7763 	 1.060 	 53.236
0.3846532 	 6.0345042 	 336.4555 	 1.061 	 53.243
0.3910933 	 6.2589506 	 345.5950 	 1.063 	 53.225
0.3973603 	 6.4890646 	 356.5451 	 1.065 	 53.213
0.4034691 	 6.7234191 	 368.1906 	 1.066 	 53.195
0.4094188 	 6.9592119 	 377.6954 	 1.067 	 53.177
0.4152195 	 7.2013705 	 390.2199 	 1.070 	 53.151
0.4208710 	 7.4470405 	 400.0846 	 1.071 	 53.152
0.4263811 	 7.6971096 	 411.2191 	 1.073 	 53.132
0.4317566 	 7.9503590 	 422.6850 	 1.074 	 53.115
0.4370026 	 8.2066692 	 433.3581 	 1.075 	 53.100
0.4421244 	 8.4684094 	 444.7673 	 1.076 	 53.089
0.4471242 	 8.7321505 	 459.6741 	 1.076 	 53.086
0.4520145 	 8.9996253 	 475.0347 	 1.079 	 53.085
0.4567886 	 9.2731512 	 487.9125 	 1.080 	 53.045
0.4614566 	 9.5492787 	 504.4805 	 1.082 	 53.061
0.4660178 	 9.8312464 	 518.6482 	 1.082 	 53.057
0.4704807 	 10.1101381 	 525.7721 	 1.083 	 53.008
0.4748471 	 10.4019914 	 538.5215 	 1.084 	 53.021
0.4791183 	 10.6927447 	 548.1076 	 1.085 	 53.019
0.4833019 	 10.9865827 	 554.3983 	 1.085 	 53.005
0.4873949 	 11.2815480 	 565.0812 	 1.086 	 52.976
0.4914038 	 11.5840641 	 574.6080 	 1.086 	 52.966
0.4953339 	 11.8902533 	 588.4613 	 1.088 	 52.959
0.4991819 	 12.2006449 	 597.9521 	 1.088 	 52.945
0.5029555 	 12.5139200 	 608.0691 	 1.089 	 52.942
0.5066524 	 12.8278881 	 613.4050 	 1.089 	 52.919
0.5102762 	 13.1477861 	 623.3335 	 1.090 	 52.917
0.5138313 	 13.4751792 	 639.8480 	 1.091 	 52.919
0.5173216 	 13.8033469 	 654.2700 	 1.090 	 52.916
0.5207418 	 14.1429828 	 666.8515 	 1.091 	 52.906
0.5240988 	 14.4798681 	 682.9065 	 1.091 	 52.890
0.5273909 	 14.8197881 	 700.1990 	 1.090 	 52.887
0.5306220 	 15.1633164 	 719.7187 	 1.090 	 52.880
0.5337963 	 15.5041085 	 740.7857 	 1.091 	 52.861
0.5369121 	 15.8642995 	 759.0998 	 1.090 	 52.846
0.5399736 	 16.2136638 	 778.8694 	 1.090 	 52.845
0.5429794 	 16.5827221 	 804.5582 	 1.089 	 52.837
0.5459353 	 16.9430382 	 836.9856 	 1.089 	 52.831
0.5488356 	 17.3126627 	 884.0091 	 1.089 	 52.834
0.5516882 	 17.6792305 	 932.3043 	 1.087 	 52.794
0.5544901 	 18.0580242 	 997.7278 	 1.087 	 52.801
0.5572431 	 18.4462748 	 1094.6325 	 1.085 	 52.807
0.5599502 	 18.8313741 	 1249.2912 	 1.085 	 52.803
0.5626147 	 19.2277194 	 1472.6563 	 1.084 	 52.808
0.5652294 	 19.6264201 	 1837.0283 	 1.083 	 52.791
0.5678010 	 20.0458660 	 2447.1078 	 1.081 	 52.813
0.5703281 	 20.4624257 	 3540.0060 	 1.080 	 52.802
0.5728134 	 20.8808295 	 5285.2160 	 1.080 	 52.810
0.5752574 	 21.3201340 	 8014.9760 	 1.078 	 52.816
0.5776560 	 21.7491320 	 12305.6539 	 1.074 	 52.800
0.5800147 	 22.2135646 	 18868.1320 	 1.073 	 52.815
0.5823311 	 22.6910204 	 27714.3701 	 1.071 	 52.809
0.5846048 	 23.1976347 	 39462.6408 	 1.069 	 52.829
0.5868336 	 23.7239464 	 54875.1231 	 1.068 	 52.832
0.5890179 	 24.2906892 	 71816.7180 	 1.068 	 52.835
0.5911569 	 24.8862085 	 89363.3443 	 1.068 	 52.856
0.5932499 	 25.5217130 	 108310.6115 	 1.069 	 52.840
0.5952935 	 26.2046379 	 124941.4529 	 1.071 	 52.851
0.5972896 	 26.9111320 	 138407.9590 	 1.073 	 52.822
0.5992356 	 27.6817915 	 148783.4649 	 1.074 	 52.843
0.6011318 	 28.4611499 	 157168.4143 	 1.076 	 52.830
0.6029800 	 29.2828175 	 162579.4197 	 1.079 	 52.800
0.6047781 	 30.1261873 	 164335.9461 	 1.080 	 52.761
0.6065278 	 31.0238632 	 163450.4775 	 1.083 	 52.773
0.6082312 	 31.9438087 	 161397.0116 	 1.085 	 52.761
0.6098894 	 32.8861195 	 160849.0074 	 1.087 	 52.729
0.6115022 	 33.8417015 	 165063.9721 	 1.089 	 52.687
0.6130731 	 34.8210975 	 176440.4792 	 1.089 	 52.659
0.6146035 	 35.8195380 	 199052.2767 	 1.089 	 52.611
0.6160933 	 36.8494984 	 235845.1434 	 1.088 	 52.601
0.6175428 	 37.8897437 	 286661.4755 	 1.087 	 52.580
0.6189549 	 38.9660062 	 353226.2013 	 1.085 	 52.543
0.6203299 	 40.1226437 	 427928.3504 	 1.084 	 52.525
0.6216666 	 41.3110068 	 505961.8204 	 1.082 	 52.516
0.6229665 	 42.5451957 	 585619.6824 	 1.079 	 52.474
0.6242301 	 43.8614800 	 658283.0394 	 1.079 	 52.456
0.6254563 	 45.2846900 	 719064.2492 	 1.079 	 52.453
0.6266463 	 46.7525706 	 774367.2224 	 1.079 	 52.423
0.6277991 	 48.2875918 	 821914.5480 	 1.080 	 52.428
0.6289164 	 49.9091195 	 858017.6762 	 1.080 	 52.422
0.6299983 	 51.6138626 	 883742.5701 	 1.083 	 52.395
