N=60 	 R=1000000 	 s=1 	 Save [density, Z, rho_t, like/unlike, events per sweep]
0.0002267 	 1.0008615 	 1.1028 	 0.995 	 7.114
0.0220635 	 1.1833308 	 12.0308 	 0.960 	 35.124
0.0428686 	 1.2259449 	 22.5778 	 0.997 	 47.978
0.0625944 	 1.3034847 	 33.1977 	 1.006 	 51.551
0.0813153 	 1.3962972 	 43.7174 	 1.008 	 52.657
0.0991203 	 1.4970348 	 54.1090 	 1.009 	 53.141
0.1160871 	 1.6045433 	 64.3975 	 1.011 	 53.346
0.1322545 	 1.7187105 	 75.2937 	 1.013 	 53.476
0.1476925 	 1.8365481 	 85.3687 	 1.015 	 53.578
0.1624509 	 1.9622677 	 95.1410 	 1.017 	 53.557
0.1765661 	 2.0921698 	 106.0697 	 1.018 	 53.530
0.1900881 	 2.2265010 	 116.5973 	 1.021 	 53.519
0.2030640 	 2.3657994 	 126.0131 	 1.023 	 53.497
0.2155166 	 2.5097827 	 135.8955 	 1.025 	 53.507
0.2274911 	 2.6569824 	 146.5319 	 1.027 	 53.457
0.2390024 	 2.8097226 	 156.5232 	 1.029 	 53.464
0.2500866 	 2.9659629 	 167.2387 	 1.031 	 53.446
0.2607649 	 3.1265079 	 177.8675 	 1.033 	 53.415
0.2710574 	 3.2906231 	 188.0461 	 1.035 	 53.403
0.2809967 	 3.4616664 	 199.5662 	 1.036 	 53.435
0.2905898 	 3.6336130 	 209.2253 	 1.039 	 53.368
0.2998584 	 3.8127732 	 218.8319 	 1.042 	 53.379
0.3088178 	 3.9935230 	 230.0333 	 1.042 	 53.378
0.3174891 	 4.1797654 	 245.3726 	 1.044 	 53.369
0.3258933 	 4.3701554 	 257.6951 	 1.046 	 53.348
0.3340358 	 4.5643027 	 270.1358 	 1.048 	 53.359
0.3419243 	 4.7627626 	 277.4150 	 1.050 	 53.336
0.3495798 	 4.9642681 	 288.0017 	 1.052 	 53.295
0.3570057 	 5.1692477 	 298.6879 	 1.054 	 53.287
0.3642207 	 5.3808618 	 307.1595 	 1.056 	 53.291
0.3712283 	 5.5938502 	 317.6516 	 1.058 	 53.268
0.3780385 	 5.8099036 	 327.2194 	 1.059 	 53.239
0.3846631 	 6.0331065 	 337.3637 	 1.061 	 53.239
0.3911098 	 6.2611189 	 345.3712 	 1.063 	 53.208
0.3973815 	 6.4905888 	 355.4236 	 1.065 	 53.226
0.4034875 	 6.7221963 	 365.0701 	 1.066 	 53.189
0.4094379 	 6.9628488 	 378.8240 	 1.068 	 53.188
0.4152367 	 7.2040972 	 385.1198 	 1.070 	 53.181
0.4208864 	 7.4493827 	 395.7121 	 1.071 	 53.158
0.4263977 	 7.6976999 	 404.4535 	 1.073 	 53.143
0.4317765 	 7.9501603 	 414.8468 	 1.075 	 53.128
0.4370260 	 8.2068458 	 425.4174 	 1.076 	 53.097
0.4421474 	 8.4712971 	 434.9335 	 1.076 	 53.098
0.4471482 	 8.7359896 	 446.8647 	 1.079 	 53.090
0.4520335 	 9.0041696 	 460.3170 	 1.080 	 53.085
0.4568058 	 9.2741603 	 468.3225 	 1.080 	 53.054
0.4614731 	 9.5515714 	 481.0161 	 1.082 	 53.052
0.4660354 	 9.8307456 	 492.5386 	 1.083 	 53.028
0.4704967 	 10.1145666 	 506.4855 	 1.083 	 53.039
0.4748618 	 10.3978548 	 516.0511 	 1.085 	 53.013
0.4791318 	 10.6906857 	 530.2249 	 1.086 	 53.000
0.4833147 	 10.9855729 	 538.9808 	 1.087 	 53.001
0.4874084 	 11.2821472 	 551.0341 	 1.088 	 52.972
0.4914175 	 11.5871997 	 560.8519 	 1.088 	 52.978
0.4953465 	 11.8942453 	 572.5812 	 1.088 	 52.975
0.4991947 	 12.2006186 	 583.4425 	 1.089 	 52.948
0.5029661 	 12.5153883 	 596.8927 	 1.090 	 52.940
0.5066617 	 12.8282450 	 609.4080 	 1.090 	 52.920
0.5102872 	 13.1490491 	 617.9663 	 1.091 	 52.908
0.5138431 	 13.4769900 	 636.1612 	 1.091 	 52.914
0.5173296 	 13.8076401 	 652.8541 	 1.091 	 52.924
0.5207518 	 14.1341394 	 662.3876 	 1.090 	 52.898
0.5241090 	 14.4790762 	 676.8988 	 1.091 	 52.895
0.5274032 	 14.8154328 	 688.2650 	 1.090 	 52.863
0.5306330 	 15.1596223 	 704.8569 	 1.090 	 52.868
0.5338055 	 15.5093147 	 722.8023 	 1.089 	 52.863
0.5369205 	 15.8574152 	 742.7553 	 1.089 	 52.832
0.5399802 	 16.2245343 	 765.7667 	 1.089 	 52.871
0.5429851 	 16.5901681 	 789.1835 	 1.088 	 52.843
0.5459368 	 16.9521907 	 821.0391 	 1.088 	 52.846
0.5488355 	 17.3137990 	 860.7206 	 1.087 	 52.815
0.5516876 	 17.6912285 	 909.7459 	 1.088 	 52.834
0.5544920 	 18.0557065 	 985.0994 	 1.087 	 52.809
0.5572522 	 18.4253052 	 1102.5222 	 1.086 	 52.796
0.5599622 	 18.8033054 	 1288.3466 	 1.085 	 52.790
0.5626289 	 19.1975178 	 1557.1815 	 1.084 	 52.797
0.5652517 	 19.5945546 	 1965.6823 	 1.084 	 52.804
0.5678310 	 19.9811338 	 2620.6969 	 1.082 	 52.806
0.5703663 	 20.3808412 	 3636.1091 	 1.080 	 52.777
0.5728625 	 20.8003324 	 5353.2561 	 1.079 	 52.788
0.5753167 	 21.2246485 	 8118.2683 	 1.077 	 52.785
0.5777290 	 21.6556383 	 12612.7754 	 1.076 	 52.772
0.5801004 	 22.0993644 	 20249.2503 	 1.076 	 52.771
0.5824289 	 22.5776280 	 31471.8888 	 1.075 	 52.752
0.5847156 	 23.0531820 	 48022.7039 	 1.077 	 52.724
0.5869603 	 23.5549398 	 69692.2579 	 1.079 	 52.709
0.5891633 	 24.0975779 	 95547.2099 	 1.086 	 52.701
0.5913218 	 24.6634273 	 125126.0859 	 1.091 	 52.697
0.5934357 	 25.2578206 	 155417.4637 	 1.099 	 52.673
0.5955039 	 25.8981026 	 185779.5476 	 1.108 	 52.657
0.5975259 	 26.5769702 	 212218.9757 	 1.116 	 52.603
0.5994980 	 27.2910626 	 233999.4655 	 1.126 	 52.579
0.6014223 	 28.0518968 	 253140.8376 	 1.136 	 52.579
0.6033000 	 28.8452427 	 269524.9761 	 1.147 	 52.539
0.6051277 	 29.6822547 	 286626.1687 	 1.158 	 52.576
0.6069081 	 30.5407890 	 305008.9402 	 1.169 	 52.555
0.6086408 	 31.4249898 	 330964.0607 	 1.179 	 52.529
0.6103285 	 32.3564981 	 367052.2859 	 1.192 	 52.554
0.6119707 	 33.2907516 	 410032.9414 	 1.205 	 52.517
0.6135686 	 34.2798021 	 463228.6516 	 1.219 	 52.545
0.6151235 	 35.3071327 	 527087.4616 	 1.231 	 52.552
0.6166367 	 36.3505313 	 597081.9653 	 1.245 	 52.542
0.6181072 	 37.4677396 	 662403.7392 	 1.257 	 52.529
0.6195352 	 38.6344595 	 720118.3428 	 1.270 	 52.523
0.6209204 	 39.8875244 	 772740.4936 	 1.283 	 52.491
0.6222657 	 41.1619490 	 821028.1590 	 1.296 	 52.480
0.6235693 	 42.5201658 	 858703.9224 	 1.309 	 52.490
0.6248337 	 43.9211820 	 892057.5996 	 1.320 	 52.464
0.6260578 	 45.4183235 	 917279.1099 	 1.332 	 52.460
0.6272437 	 46.9418838 	 937579.5530 	 1.343 	 52.405
0.6283914 	 48.5509579 	 951415.9090 	 1.356 	 52.409
0.6295028 	 50.2410679 	 963468.3918 	 1.368 	 52.390
