N=60 	 R=1000000 	 s=1 	 Save [density, Z, rho_t, like/unlike, events per sweep]
0.0002262 	 1.0008528 	 1.1027 	 0.999 	 7.112
0.0220763 	 1.1832971 	 11.9784 	 0.960 	 35.159
0.0428836 	 1.2260647 	 22.6674 	 0.998 	 47.975
0.0626026 	 1.3035341 	 33.1667 	 1.006 	 51.539
0.0812994 	 1.3962366 	 43.7494 	 1.009 	 52.659
0.0990847 	 1.4966749 	 53.9916 	 1.010 	 53.140
0.1160484 	 1.6043932 	 64.3914 	 1.012 	 53.368
0.1322141 	 1.7182247 	 74.7734 	 1.013 	 53.450
0.1476623 	 1.8363703 	 85.6795 	 1.014 	 53.576
0.1624068 	 1.9617569 	 96.3691 	 1.016 	 53.571
0.1765255 	 2.0919624 	 107.4447 	 1.019 	 53.543
0.1900714 	 2.2265144 	 118.0509 	 1.021 	 53.541
0.2030435 	 2.3653466 	 128.2102 	 1.023 	 53.504
0.2155067 	 2.5087020 	 137.8495 	 1.025 	 53.494
0.2274621 	 2.6566813 	 147.8966 	 1.027 	 53.482
0.2389704 	 2.8088785 	 158.5342 	 1.029 	 53.457
0.2500416 	 2.9649839 	 169.3251 	 1.030 	 53.455
0.2607114 	 3.1252407 	 178.1881 	 1.033 	 53.426
0.2710021 	 3.2909191 	 189.2228 	 1.036 	 53.420
0.2809431 	 3.4603148 	 198.7390 	 1.037 	 53.401
0.2905406 	 3.6330373 	 210.5011 	 1.039 	 53.370
0.2998156 	 3.8117743 	 220.1822 	 1.041 	 53.381
0.3087782 	 3.9926327 	 228.8780 	 1.042 	 53.377
0.3174570 	 4.1788272 	 237.8161 	 1.044 	 53.347
0.3258641 	 4.3691577 	 248.5112 	 1.047 	 53.341
0.3340050 	 4.5636634 	 257.7236 	 1.048 	 53.325
0.3418974 	 4.7614389 	 267.9480 	 1.050 	 53.321
0.3495557 	 4.9619055 	 276.0903 	 1.052 	 53.289
0.3569786 	 5.1694672 	 286.1180 	 1.054 	 53.303
0.3641863 	 5.3786486 	 297.5694 	 1.056 	 53.265
0.3711967 	 5.5927314 	 308.0730 	 1.058 	 53.264
0.3780087 	 5.8099494 	 315.6425 	 1.060 	 53.237
0.3846328 	 6.0318523 	 326.8824 	 1.061 	 53.218
0.3910779 	 6.2579846 	 338.2563 	 1.063 	 53.218
0.3973552 	 6.4877998 	 349.1619 	 1.065 	 53.198
0.4034665 	 6.7221561 	 357.9916 	 1.067 	 53.195
0.4094167 	 6.9628452 	 370.3754 	 1.068 	 53.180
0.4152094 	 7.2034325 	 379.2018 	 1.070 	 53.167
0.4208621 	 7.4461554 	 388.2182 	 1.071 	 53.153
0.4263747 	 7.6954280 	 399.7604 	 1.073 	 53.141
0.4317541 	 7.9487321 	 406.0326 	 1.074 	 53.121
0.4370000 	 8.2080912 	 417.8432 	 1.076 	 53.109
0.4421168 	 8.4701202 	 430.5453 	 1.077 	 53.106
0.4471182 	 8.7322157 	 440.7490 	 1.078 	 53.097
0.4520061 	 9.0004067 	 454.4950 	 1.080 	 53.086
0.4567787 	 9.2707025 	 463.8858 	 1.080 	 53.052
0.4614467 	 9.5478186 	 474.1487 	 1.082 	 53.036
0.4660060 	 9.8303378 	 482.1375 	 1.083 	 53.052
0.4704710 	 10.1125061 	 490.7828 	 1.084 	 53.021
0.4748400 	 10.4002613 	 500.3633 	 1.085 	 53.019
0.4791097 	 10.6885809 	 515.4445 	 1.086 	 52.994
0.4832941 	 10.9890099 	 524.5373 	 1.087 	 53.001
0.4873889 	 11.2872944 	 533.8999 	 1.088 	 52.999
0.4914000 	 11.5853198 	 545.4971 	 1.089 	 52.971
0.4953264 	 11.8940317 	 553.3278 	 1.090 	 52.964
0.4991751 	 12.2003391 	 564.0548 	 1.090 	 52.949
0.5029463 	 12.5144229 	 573.5843 	 1.090 	 52.937
0.5066418 	 12.8277652 	 586.2098 	 1.090 	 52.933
0.5102685 	 13.1534278 	 600.0861 	 1.090 	 52.943
0.5138244 	 13.4751246 	 612.8735 	 1.090 	 52.904
0.5173106 	 13.8040775 	 617.9382 	 1.090 	 52.901
0.5207329 	 14.1386608 	 628.3768 	 1.091 	 52.895
0.5240869 	 14.4763561 	 639.3426 	 1.091 	 52.894
0.5273822 	 14.8176858 	 648.6359 	 1.091 	 52.883
0.5306163 	 15.1653965 	 658.9591 	 1.090 	 52.875
0.5337871 	 15.5122129 	 672.9199 	 1.091 	 52.874
0.5369049 	 15.8608397 	 689.4953 	 1.090 	 52.858
0.5399659 	 16.2199706 	 712.0088 	 1.091 	 52.859
0.5429726 	 16.5734000 	 736.7326 	 1.090 	 52.827
0.5459242 	 16.9471428 	 777.4304 	 1.090 	 52.851
0.5488273 	 17.3048209 	 822.0537 	 1.089 	 52.825
0.5516797 	 17.6847927 	 883.8201 	 1.088 	 52.834
0.5544814 	 18.0513091 	 983.6350 	 1.088 	 52.799
0.5572373 	 18.4323534 	 1114.4049 	 1.087 	 52.808
0.5599450 	 18.8183742 	 1321.2382 	 1.086 	 52.817
0.5626075 	 19.2199838 	 1637.8938 	 1.084 	 52.815
0.5652248 	 19.6187022 	 2134.5864 	 1.083 	 52.796
0.5677967 	 20.0334304 	 2827.5026 	 1.081 	 52.783
0.5703243 	 20.4597509 	 3863.8074 	 1.079 	 52.791
0.5728074 	 20.9030013 	 5388.8379 	 1.077 	 52.782
0.5752436 	 21.3581384 	 7434.3652 	 1.075 	 52.768
0.5776375 	 21.8436824 	 10266.9433 	 1.073 	 52.778
0.5799834 	 22.3450773 	 13970.7199 	 1.070 	 52.766
0.5822815 	 22.8789275 	 18367.4327 	 1.067 	 52.764
0.5845319 	 23.4425846 	 23835.6195 	 1.064 	 52.763
0.5867331 	 24.0383486 	 29729.9569 	 1.062 	 52.753
0.5888856 	 24.6620145 	 36754.4815 	 1.060 	 52.771
0.5909892 	 25.3029564 	 44294.7360 	 1.058 	 52.735
0.5930409 	 25.9813864 	 52148.2062 	 1.056 	 52.736
0.5950447 	 26.6879000 	 60953.5866 	 1.054 	 52.752
0.5970008 	 27.4253154 	 70833.1809 	 1.052 	 52.726
0.5989089 	 28.1792094 	 82808.2332 	 1.049 	 52.749
0.6007709 	 28.9477669 	 94691.9665 	 1.047 	 52.708
0.6025867 	 29.7482092 	 108290.7642 	 1.045 	 52.720
0.6043580 	 30.5494258 	 125178.4998 	 1.042 	 52.719
0.6060844 	 31.3724913 	 144023.1704 	 1.039 	 52.698
0.6077690 	 32.2050655 	 165932.6122 	 1.036 	 52.730
0.6094151 	 33.0617826 	 191243.7428 	 1.033 	 52.712
0.6110206 	 33.9431515 	 216137.2054 	 1.028 	 52.713
0.6125864 	 34.8673093 	 237692.4780 	 1.026 	 52.728
0.6141135 	 35.8247384 	 254840.0229 	 1.023 	 52.749
0.6156026 	 36.8151343 	 267055.7760 	 1.022 	 52.729
0.6170526 	 37.8936790 	 275115.2592 	 1.020 	 52.770
0.6184624 	 39.0057574 	 275204.0713 	 1.017 	 52.812
0.6198344 	 40.1681971 	 271424.8311 	 1.016 	 52.799
0.6211674 	 41.3743133 	 266081.3133 	 1.016 	 52.843
0.6224636 	 42.6544438 	 260784.6909 	 1.013 	 52.874
0.6237234 	 43.9755796 	 256207.9240 	 1.012 	 52.916
0.6249454 	 45.3563960 	 252857.4908 	 1.011 	 52.925
0.6261308 	 46.7669848 	 251869.0825 	 1.009 	 52.944
0.6272823 	 48.2926394 	 255173.3137 	 1.007 	 53.000
0.6283989 	 49.8416160 	 259840.6211 	 1.003 	 53.014
0.6294818 	 51.4699714 	 265780.2772 	 1.000 	 53.053
