N=60 	 R=1000000 	 s=1 	 Save [density, Z, rho_t, like/unlike, events per sweep]
0.0002264 	 1.0008563 	 1.1027 	 1.003 	 7.113
0.0220544 	 1.1833028 	 11.9600 	 0.961 	 35.134
0.0428412 	 1.2260110 	 22.4899 	 0.997 	 47.967
0.0625686 	 1.3034773 	 32.6628 	 1.006 	 51.552
0.0812856 	 1.3960788 	 43.2100 	 1.009 	 52.645
0.0990821 	 1.4965309 	 53.6941 	 1.009 	 53.144
0.1160365 	 1.6041624 	 64.4788 	 1.011 	 53.357
0.1322028 	 1.7181259 	 74.8785 	 1.013 	 53.447
0.1476483 	 1.8362754 	 84.7465 	 1.014 	 53.575
0.1624160 	 1.9618509 	 95.8573 	 1.016 	 53.570
0.1765424 	 2.0915577 	 105.6238 	 1.019 	 53.523
0.1900812 	 2.2262505 	 116.0559 	 1.021 	 53.521
0.2030519 	 2.3657321 	 126.4345 	 1.022 	 53.513
0.2155074 	 2.5090100 	 137.6568 	 1.025 	 53.492
0.2274707 	 2.6569203 	 148.8087 	 1.028 	 53.487
0.2389817 	 2.8095654 	 159.0097 	 1.030 	 53.486
0.2500686 	 2.9655906 	 169.8361 	 1.031 	 53.446
0.2607405 	 3.1269394 	 180.9684 	 1.033 	 53.438
0.2710308 	 3.2915135 	 191.7936 	 1.035 	 53.417
0.2809676 	 3.4609288 	 203.3360 	 1.037 	 53.427
0.2905595 	 3.6350224 	 213.6422 	 1.039 	 53.400
0.2998390 	 3.8119681 	 224.1891 	 1.041 	 53.383
0.3088071 	 3.9933506 	 235.0741 	 1.042 	 53.359
0.3174843 	 4.1801995 	 245.0510 	 1.044 	 53.384
0.3258855 	 4.3694391 	 254.1786 	 1.046 	 53.341
0.3340227 	 4.5634714 	 265.7399 	 1.049 	 53.338
0.3419096 	 4.7622367 	 274.9560 	 1.051 	 53.323
0.3495645 	 4.9652518 	 286.6577 	 1.052 	 53.327
0.3569919 	 5.1698670 	 298.0120 	 1.055 	 53.307
0.3642046 	 5.3786548 	 308.0950 	 1.056 	 53.273
0.3712156 	 5.5939629 	 318.1411 	 1.058 	 53.266
0.3780278 	 5.8112226 	 329.7730 	 1.060 	 53.243
0.3846504 	 6.0316048 	 338.2918 	 1.062 	 53.220
0.3910998 	 6.2602563 	 349.8686 	 1.063 	 53.232
0.3973700 	 6.4892756 	 360.9357 	 1.065 	 53.198
0.4034720 	 6.7217127 	 372.9377 	 1.067 	 53.166
0.4094201 	 6.9596728 	 383.3788 	 1.069 	 53.171
0.4152222 	 7.2011792 	 392.1318 	 1.070 	 53.157
0.4208724 	 7.4470765 	 400.2757 	 1.071 	 53.156
0.4263802 	 7.6971597 	 406.2118 	 1.073 	 53.135
0.4317542 	 7.9515667 	 417.1434 	 1.075 	 53.134
0.4369996 	 8.2082947 	 431.0539 	 1.076 	 53.125
0.4421252 	 8.4692945 	 440.4663 	 1.076 	 53.099
0.4471221 	 8.7358004 	 448.9487 	 1.078 	 53.075
0.4520051 	 9.0023405 	 458.1973 	 1.079 	 53.085
0.4567769 	 9.2737944 	 467.8360 	 1.079 	 53.066
0.4614450 	 9.5491488 	 474.4732 	 1.080 	 53.064
0.4660090 	 9.8263263 	 484.1425 	 1.082 	 53.033
0.4704735 	 10.1125058 	 497.6364 	 1.083 	 53.020
0.4748369 	 10.4033302 	 506.7076 	 1.085 	 53.031
0.4791091 	 10.6880772 	 515.2823 	 1.085 	 53.011
0.4832919 	 10.9853951 	 525.8843 	 1.086 	 53.021
0.4873826 	 11.2816303 	 536.8510 	 1.086 	 52.984
0.4913903 	 11.5835407 	 548.6104 	 1.087 	 52.974
0.4953190 	 11.8901320 	 558.6897 	 1.088 	 52.951
0.4991707 	 12.1975278 	 566.9599 	 1.088 	 52.937
0.5029422 	 12.5167590 	 581.1194 	 1.090 	 52.938
0.5066397 	 12.8315892 	 588.0776 	 1.090 	 52.929
0.5102642 	 13.1498932 	 602.5524 	 1.090 	 52.905
0.5138189 	 13.4809831 	 614.4444 	 1.091 	 52.915
0.5173044 	 13.8081678 	 625.7842 	 1.091 	 52.902
0.5207232 	 14.1381550 	 641.4627 	 1.091 	 52.880
0.5240772 	 14.4732820 	 651.6001 	 1.090 	 52.883
0.5273721 	 14.8176586 	 666.1476 	 1.091 	 52.884
0.5306046 	 15.1625184 	 681.8350 	 1.091 	 52.882
0.5337776 	 15.5094737 	 698.6618 	 1.091 	 52.865
0.5368924 	 15.8554429 	 719.7256 	 1.090 	 52.841
0.5399540 	 16.2137847 	 733.6947 	 1.091 	 52.834
0.5429600 	 16.5751163 	 753.0199 	 1.090 	 52.845
0.5459116 	 16.9474008 	 779.7379 	 1.089 	 52.840
0.5488136 	 17.3119474 	 812.1251 	 1.087 	 52.853
0.5516660 	 17.6882401 	 866.7221 	 1.088 	 52.830
0.5544683 	 18.0612767 	 925.3555 	 1.087 	 52.818
0.5572225 	 18.4467155 	 1025.6636 	 1.086 	 52.813
0.5599294 	 18.8360494 	 1160.2821 	 1.085 	 52.810
0.5625897 	 19.2310683 	 1372.8646 	 1.081 	 52.802
0.5652051 	 19.6371242 	 1674.3765 	 1.081 	 52.795
0.5677743 	 20.0471567 	 2140.2021 	 1.079 	 52.762
0.5702976 	 20.4811018 	 2811.7972 	 1.077 	 52.756
0.5727773 	 20.9160175 	 3743.5963 	 1.074 	 52.761
0.5752117 	 21.3776950 	 5105.7063 	 1.072 	 52.760
0.5776032 	 21.8614944 	 6738.7384 	 1.070 	 52.773
0.5799472 	 22.3529371 	 8693.7862 	 1.068 	 52.749
0.5822467 	 22.8718053 	 10869.5541 	 1.065 	 52.757
0.5845009 	 23.3995131 	 13503.8927 	 1.063 	 52.740
0.5867095 	 23.9395440 	 16565.8935 	 1.059 	 52.740
0.5888730 	 24.4861051 	 20118.8084 	 1.055 	 52.749
0.5909963 	 25.0483909 	 24089.5554 	 1.051 	 52.736
0.5930776 	 25.6363852 	 29530.6721 	 1.046 	 52.760
0.5951163 	 26.1955978 	 36813.0552 	 1.043 	 52.720
0.5971160 	 26.7699510 	 47020.8021 	 1.038 	 52.707
0.5990768 	 27.3514079 	 62170.3306 	 1.032 	 52.682
0.6010012 	 27.9583765 	 83696.9826 	 1.028 	 52.675
0.6028874 	 28.5835912 	 114010.0670 	 1.024 	 52.636
0.6047386 	 29.2303841 	 155426.5360 	 1.021 	 52.589
0.6065510 	 29.9200773 	 207327.6335 	 1.020 	 52.537
0.6083229 	 30.6704896 	 262999.6381 	 1.019 	 52.476
0.6100540 	 31.4870336 	 332433.1970 	 1.020 	 52.437
0.6117444 	 32.3471956 	 404842.5750 	 1.022 	 52.402
0.6133919 	 33.2496260 	 480155.8441 	 1.024 	 52.322
0.6149957 	 34.2340508 	 550191.3809 	 1.025 	 52.302
0.6165566 	 35.2328521 	 620282.2377 	 1.029 	 52.241
0.6180732 	 36.3133072 	 684099.5924 	 1.031 	 52.192
0.6195480 	 37.4341154 	 742730.4268 	 1.034 	 52.175
0.6209807 	 38.6183705 	 794475.7552 	 1.038 	 52.113
0.6223695 	 39.8594607 	 840883.3007 	 1.041 	 52.103
0.6237174 	 41.1603814 	 877195.7101 	 1.043 	 52.063
0.6250243 	 42.5260625 	 907511.3560 	 1.047 	 52.046
0.6262910 	 43.9336724 	 933923.3097 	 1.049 	 52.030
0.6275180 	 45.4219479 	 952084.6742 	 1.052 	 51.990
0.6287074 	 46.9591324 	 965553.9320 	 1.054 	 51.964
0.6298585 	 48.5832895 	 975249.8402 	 1.056 	 51.956
