N=60 	 R=1000000 	 s=1 	 Save [density, Z, rho_t, like/unlike, events per sweep]
0.0002256 	 1.0008556 	 1.1027 	 0.983 	 7.113
0.0220780 	 1.1832706 	 12.0037 	 0.961 	 35.152
0.0428823 	 1.2262162 	 22.4843 	 0.998 	 47.987
0.0626017 	 1.3037198 	 32.8772 	 1.006 	 51.566
0.0812951 	 1.3961456 	 42.7940 	 1.008 	 52.633
0.0990925 	 1.4966667 	 53.0521 	 1.010 	 53.143
0.1160448 	 1.6042570 	 63.2410 	 1.012 	 53.351
0.1322127 	 1.7184435 	 73.2235 	 1.013 	 53.470
0.1476573 	 1.8364726 	 83.6019 	 1.015 	 53.594
0.1624137 	 1.9618487 	 93.9132 	 1.017 	 53.568
0.1765361 	 2.0919886 	 104.6031 	 1.019 	 53.575
0.1900734 	 2.2265955 	 115.7684 	 1.021 	 53.531
0.2030539 	 2.3653311 	 125.8441 	 1.023 	 53.485
0.2155092 	 2.5092706 	 136.1774 	 1.025 	 53.486
0.2274782 	 2.6566686 	 146.0713 	 1.027 	 53.471
0.2389972 	 2.8097385 	 157.0015 	 1.029 	 53.464
0.2500777 	 2.9658353 	 167.0858 	 1.031 	 53.439
0.2607502 	 3.1259622 	 176.4445 	 1.033 	 53.426
0.2710532 	 3.2918214 	 186.9603 	 1.035 	 53.416
0.2809856 	 3.4605700 	 199.2896 	 1.037 	 53.408
0.2905786 	 3.6339124 	 207.6531 	 1.039 	 53.381
0.2998554 	 3.8119687 	 219.1584 	 1.040 	 53.386
0.3088200 	 3.9942244 	 228.8534 	 1.043 	 53.376
0.3174983 	 4.1805209 	 239.7372 	 1.044 	 53.373
0.3258990 	 4.3689664 	 249.5320 	 1.046 	 53.334
0.3340314 	 4.5632203 	 260.1736 	 1.048 	 53.320
0.3419220 	 4.7596878 	 271.1480 	 1.050 	 53.313
0.3495766 	 4.9639375 	 281.5133 	 1.052 	 53.301
0.3570063 	 5.1700290 	 292.2341 	 1.054 	 53.298
0.3642167 	 5.3803069 	 301.7734 	 1.056 	 53.298
0.3712249 	 5.5941650 	 311.1367 	 1.058 	 53.259
0.3780326 	 5.8114877 	 321.7195 	 1.059 	 53.232
0.3846563 	 6.0349184 	 334.2765 	 1.062 	 53.242
0.3911065 	 6.2600164 	 345.3754 	 1.063 	 53.215
0.3973740 	 6.4901190 	 357.0897 	 1.065 	 53.210
0.4034802 	 6.7210160 	 368.0409 	 1.067 	 53.193
0.4094240 	 6.9621054 	 376.4338 	 1.069 	 53.190
0.4152228 	 7.2033597 	 388.1725 	 1.070 	 53.178
0.4208793 	 7.4483340 	 397.0480 	 1.072 	 53.148
0.4263905 	 7.6974312 	 407.5079 	 1.073 	 53.141
0.4317664 	 7.9477481 	 421.8482 	 1.075 	 53.108
0.4370164 	 8.2084665 	 431.1029 	 1.075 	 53.135
0.4421373 	 8.4706775 	 442.7989 	 1.078 	 53.107
0.4471325 	 8.7318031 	 454.0332 	 1.078 	 53.078
0.4520182 	 9.0022053 	 461.9506 	 1.079 	 53.077
0.4567889 	 9.2757366 	 472.7180 	 1.080 	 53.078
0.4614578 	 9.5482784 	 484.4547 	 1.082 	 53.039
0.4660232 	 9.8311191 	 494.2724 	 1.082 	 53.063
0.4704861 	 10.1131188 	 502.6761 	 1.082 	 53.029
0.4748517 	 10.3984754 	 512.7549 	 1.084 	 53.015
0.4791264 	 10.6899023 	 522.2381 	 1.085 	 53.005
0.4833087 	 10.9866081 	 529.4411 	 1.085 	 52.983
0.4874015 	 11.2830304 	 541.4277 	 1.087 	 52.980
0.4914143 	 11.5827806 	 547.8444 	 1.087 	 52.968
0.4953384 	 11.8914706 	 558.3949 	 1.089 	 52.964
0.4991843 	 12.1987249 	 565.6223 	 1.088 	 52.951
0.5029574 	 12.5129316 	 575.8939 	 1.089 	 52.940
0.5066552 	 12.8319584 	 585.0279 	 1.089 	 52.922
0.5102778 	 13.1523761 	 600.1196 	 1.090 	 52.939
0.5138345 	 13.4810772 	 612.9146 	 1.090 	 52.943
0.5173189 	 13.8107326 	 624.6643 	 1.090 	 52.918
0.5207409 	 14.1431715 	 641.7410 	 1.090 	 52.904
0.5240957 	 14.4775470 	 653.8470 	 1.090 	 52.871
0.5273895 	 14.8236283 	 666.8603 	 1.091 	 52.882
0.5306214 	 15.1650227 	 688.8539 	 1.092 	 52.865
0.5337953 	 15.5146297 	 705.2438 	 1.091 	 52.859
0.5369066 	 15.8760336 	 730.1320 	 1.089 	 52.872
0.5399650 	 16.2158670 	 753.4961 	 1.089 	 52.838
0.5429703 	 16.5789169 	 780.2676 	 1.088 	 52.837
0.5459235 	 16.9465479 	 817.0705 	 1.087 	 52.848
0.5488250 	 17.3035603 	 862.7067 	 1.086 	 52.824
0.5516767 	 17.6726521 	 925.9660 	 1.084 	 52.818
0.5544793 	 18.0411410 	 1031.1213 	 1.082 	 52.821
0.5572396 	 18.4079930 	 1203.0576 	 1.081 	 52.809
0.5599541 	 18.7780275 	 1533.9530 	 1.081 	 52.800
0.5626249 	 19.1583672 	 2219.1135 	 1.079 	 52.797
0.5652551 	 19.5140952 	 3623.2065 	 1.076 	 52.786
0.5678443 	 19.8893592 	 6312.5461 	 1.076 	 52.778
0.5703958 	 20.2682013 	 11075.1959 	 1.075 	 52.756
0.5729080 	 20.6415903 	 19373.8071 	 1.074 	 52.743
0.5753818 	 21.0472320 	 31880.8800 	 1.075 	 52.717
0.5778159 	 21.4711709 	 50708.9943 	 1.077 	 52.711
0.5802086 	 21.9164304 	 75129.5717 	 1.082 	 52.658
0.5825551 	 22.4237414 	 103114.2909 	 1.086 	 52.643
0.5848546 	 22.9661561 	 135498.4937 	 1.092 	 52.627
0.5871064 	 23.5450117 	 167489.8046 	 1.097 	 52.597
0.5893073 	 24.1736446 	 197108.6312 	 1.102 	 52.571
0.5914552 	 24.8448444 	 221421.8576 	 1.107 	 52.563
0.5935485 	 25.5424204 	 244674.3747 	 1.111 	 52.537
0.5955895 	 26.2629370 	 263144.6096 	 1.115 	 52.515
0.5975774 	 27.0391901 	 275815.7418 	 1.119 	 52.500
0.5995129 	 27.8234365 	 284694.4320 	 1.121 	 52.491
0.6013981 	 28.6487181 	 285641.6131 	 1.123 	 52.508
0.6032338 	 29.4949874 	 279922.4656 	 1.123 	 52.493
0.6050191 	 30.3587319 	 275209.0263 	 1.123 	 52.506
0.6067574 	 31.2187594 	 261740.5437 	 1.122 	 52.501
0.6084521 	 32.1108502 	 246348.4070 	 1.119 	 52.514
0.6101016 	 33.0112343 	 232300.8693 	 1.116 	 52.547
0.6117108 	 33.9157332 	 221062.9560 	 1.113 	 52.564
0.6132780 	 34.8630444 	 212312.9317 	 1.110 	 52.622
0.6148070 	 35.7934661 	 212935.9423 	 1.105 	 52.633
0.6162981 	 36.7772897 	 219066.0542 	 1.101 	 52.694
0.6177522 	 37.7781953 	 233538.1372 	 1.097 	 52.718
0.6191712 	 38.8100352 	 251916.2356 	 1.095 	 52.744
0.6205526 	 39.9035256 	 268581.7497 	 1.094 	 52.779
0.6218991 	 41.0321030 	 284574.6634 	 1.093 	 52.776
0.6232093 	 42.2212238 	 295148.9655 	 1.094 	 52.805
0.6244843 	 43.4199755 	 300952.5047 	 1.095 	 52.817
0.6257258 	 44.6746680 	 305743.4127 	 1.097 	 52.812
0.6269345 	 45.9467868 	 311433.6873 	 1.098 	 52.837
0.6281110 	 47.1961899 	 325445.0820 	 1.098 	 52.832
0.6292582 	 48.4641117 	 355652.9334 	 1.100 	 52.867
