N=60 	 R=1000000 	 s=1 	 Save [density, Z, rho_t, like/unlike, events per sweep]
0.0002250 	 1.0008503 	 1.1028 	 1.002 	 7.112
0.0220570 	 1.1832287 	 11.9992 	 0.960 	 35.134
0.0428427 	 1.2259373 	 22.5994 	 0.999 	 47.974
0.0625737 	 1.3034177 	 32.9633 	 1.006 	 51.555
0.0812825 	 1.3959194 	 43.2402 	 1.008 	 52.636
0.0990722 	 1.4966711 	 53.6278 	 1.010 	 53.123
0.1160330 	 1.6041117 	 63.8280 	 1.011 	 53.338
0.1322066 	 1.7182226 	 74.4731 	 1.013 	 53.467
0.1476410 	 1.8360953 	 84.6403 	 1.014 	 53.584
0.1623899 	 1.9618626 	 95.1901 	 1.017 	 53.576
0.1765124 	 2.0915545 	 105.1421 	 1.018 	 53.538
0.1900478 	 2.2263163 	 115.5599 	 1.021 	 53.514
0.2030288 	 2.3651363 	 125.8335 	 1.023 	 53.503
0.2154878 	 2.5088549 	 136.7496 	 1.026 	 53.482
0.2274624 	 2.6571915 	 147.2735 	 1.028 	 53.471
0.2389754 	 2.8084392 	 157.5039 	 1.029 	 53.461
0.2500628 	 2.9660374 	 167.5909 	 1.031 	 53.454
0.2607411 	 3.1265723 	 177.4021 	 1.032 	 53.421
0.2710348 	 3.2914755 	 187.1026 	 1.035 	 53.412
0.2809644 	 3.4614184 	 197.1987 	 1.036 	 53.419
0.2905541 	 3.6338827 	 207.6109 	 1.039 	 53.405
0.2998342 	 3.8109440 	 216.2531 	 1.040 	 53.382
0.3088023 	 3.9931156 	 225.2977 	 1.042 	 53.375
0.3174801 	 4.1792383 	 236.6958 	 1.045 	 53.355
0.3258830 	 4.3698015 	 246.1124 	 1.047 	 53.351
0.3340176 	 4.5632209 	 256.4178 	 1.049 	 53.333
0.3419133 	 4.7607254 	 267.4512 	 1.051 	 53.311
0.3495658 	 4.9620937 	 277.5355 	 1.052 	 53.311
0.3569966 	 5.1693064 	 289.3387 	 1.054 	 53.289
0.3642087 	 5.3793467 	 299.6320 	 1.056 	 53.282
0.3712174 	 5.5928120 	 310.3673 	 1.058 	 53.261
0.3780311 	 5.8112253 	 319.5056 	 1.060 	 53.234
0.3846559 	 6.0332377 	 330.3430 	 1.062 	 53.232
0.3910984 	 6.2594396 	 340.8820 	 1.064 	 53.227
0.3973661 	 6.4897991 	 350.6576 	 1.066 	 53.205
0.4034714 	 6.7244554 	 360.7095 	 1.066 	 53.201
0.4094182 	 6.9598311 	 370.5546 	 1.068 	 53.178
0.4152158 	 7.2030735 	 377.8329 	 1.070 	 53.173
0.4208682 	 7.4484137 	 389.1185 	 1.071 	 53.163
0.4263815 	 7.7000943 	 397.0585 	 1.073 	 53.138
0.4317599 	 7.9519194 	 408.8613 	 1.075 	 53.128
0.4370054 	 8.2071217 	 422.0200 	 1.075 	 53.117
0.4421257 	 8.4656840 	 432.3093 	 1.076 	 53.085
0.4471274 	 8.7355803 	 442.1463 	 1.079 	 53.098
0.4520138 	 9.0018116 	 452.8451 	 1.079 	 53.073
0.4567884 	 9.2745848 	 463.2467 	 1.081 	 53.063
0.4614589 	 9.5504728 	 476.2935 	 1.082 	 53.065
0.4660212 	 9.8331035 	 491.2411 	 1.083 	 53.051
0.4704790 	 10.1129318 	 503.8011 	 1.083 	 53.015
0.4748488 	 10.3977480 	 513.2000 	 1.084 	 53.028
0.4791213 	 10.6906055 	 522.0806 	 1.086 	 53.018
0.4833011 	 10.9848781 	 528.3431 	 1.085 	 52.975
0.4873964 	 11.2898805 	 535.7702 	 1.086 	 53.006
0.4914046 	 11.5875954 	 543.4946 	 1.087 	 52.978
0.4953326 	 11.8926656 	 556.2657 	 1.088 	 52.971
0.4991832 	 12.2022604 	 563.0609 	 1.088 	 52.961
0.5029562 	 12.5156218 	 571.8693 	 1.090 	 52.922
0.5066522 	 12.8328357 	 582.3396 	 1.089 	 52.924
0.5102762 	 13.1589340 	 594.3201 	 1.092 	 52.913
0.5138317 	 13.4822496 	 608.3664 	 1.092 	 52.921
0.5173165 	 13.8030088 	 619.8560 	 1.091 	 52.912
0.5207349 	 14.1337701 	 632.5286 	 1.090 	 52.870
0.5240912 	 14.4735757 	 646.4738 	 1.091 	 52.876
0.5273862 	 14.8155755 	 660.8939 	 1.091 	 52.881
0.5306189 	 15.1613669 	 679.3950 	 1.090 	 52.877
0.5337949 	 15.5056403 	 697.2942 	 1.090 	 52.869
0.5369133 	 15.8658540 	 712.5122 	 1.088 	 52.871
0.5399745 	 16.2198503 	 740.7752 	 1.088 	 52.837
0.5429828 	 16.5691863 	 771.4785 	 1.088 	 52.832
0.5459383 	 16.9378129 	 813.9321 	 1.088 	 52.837
0.5488422 	 17.2983719 	 888.0393 	 1.086 	 52.840
0.5516962 	 17.6543998 	 1016.3166 	 1.085 	 52.818
0.5545038 	 18.0245791 	 1309.7677 	 1.082 	 52.799
0.5572666 	 18.3901665 	 1932.5439 	 1.079 	 52.805
0.5599842 	 18.7461158 	 3338.1075 	 1.073 	 52.781
0.5626582 	 19.1028387 	 6218.0848 	 1.067 	 52.772
0.5652966 	 19.4710301 	 12042.9114 	 1.059 	 52.764
0.5678939 	 19.8203253 	 22796.6715 	 1.049 	 52.779
0.5704559 	 20.1730959 	 40614.2095 	 1.037 	 52.765
0.5729799 	 20.5416040 	 67768.4811 	 1.024 	 52.733
0.5754678 	 20.9382257 	 103081.6042 	 1.010 	 52.722
0.5779164 	 21.3562449 	 148074.9764 	 0.996 	 52.679
0.5803219 	 21.8198800 	 196539.5777 	 0.984 	 52.660
0.5826828 	 22.3239239 	 246745.1558 	 0.972 	 52.657
0.5849925 	 22.8691678 	 288337.9662 	 0.966 	 52.621
0.5872519 	 23.4583652 	 325800.2010 	 0.960 	 52.603
0.5894613 	 24.0861176 	 356340.2982 	 0.957 	 52.578
0.5916156 	 24.7523433 	 375997.0902 	 0.956 	 52.563
0.5937197 	 25.4631372 	 393252.0307 	 0.955 	 52.547
0.5957685 	 26.1915761 	 405009.4472 	 0.957 	 52.514
0.5977638 	 26.9607879 	 411097.2385 	 0.959 	 52.510
0.5997054 	 27.7430910 	 412561.1486 	 0.963 	 52.513
0.6015982 	 28.5613560 	 409408.6467 	 0.968 	 52.481
0.6034401 	 29.3837687 	 407106.5692 	 0.972 	 52.462
0.6052330 	 30.2304343 	 403214.9450 	 0.975 	 52.481
0.6069798 	 31.0720950 	 399410.6731 	 0.978 	 52.482
0.6086843 	 31.8849897 	 395956.1928 	 0.979 	 52.471
0.6103505 	 32.6687905 	 397000.6116 	 0.976 	 52.467
0.6119815 	 33.4015324 	 406300.9780 	 0.969 	 52.501
0.6135819 	 34.0681484 	 432062.4650 	 0.955 	 52.565
0.6151551 	 34.6987360 	 479315.3792 	 0.937 	 52.633
0.6167041 	 35.3326214 	 541302.4955 	 0.918 	 52.641
0.6182263 	 36.0478431 	 619453.0245 	 0.900 	 52.696
0.6197187 	 36.8561686 	 691718.2643 	 0.885 	 52.689
0.6211789 	 37.8430502 	 750483.5521 	 0.877 	 52.735
0.6226013 	 38.9080988 	 800726.2123 	 0.870 	 52.723
0.6239857 	 40.0945538 	 834898.6548 	 0.867 	 52.725
0.6253303 	 41.3665911 	 862771.8819 	 0.866 	 52.727
0.6266335 	 42.7070668 	 883589.0055 	 0.866 	 52.717
0.6278977 	 44.1058088 	 898999.2735 	 0.867 	 52.701
0.6291228 	 45.5509995 	 912137.8138 	 0.869 	 52.661
