N=60 	 R=1000000 	 s=1 	 Save [density, Z, rho_t, like/unlike, events per sweep]
0.0002273 	 1.0008570 	 1.1027 	 0.992 	 7.113
0.0220605 	 1.1832507 	 11.9447 	 0.961 	 35.133
0.0428548 	 1.2260164 	 22.5194 	 0.998 	 47.959
0.0625827 	 1.3035309 	 33.2541 	 1.007 	 51.554
0.0813098 	 1.3961437 	 43.4721 	 1.008 	 52.649
0.0991220 	 1.4966148 	 54.0040 	 1.009 	 53.128
0.1160751 	 1.6045556 	 64.2774 	 1.011 	 53.357
0.1322617 	 1.7188108 	 75.2641 	 1.013 	 53.470
0.1476977 	 1.8367120 	 85.7979 	 1.015 	 53.575
0.1624627 	 1.9623706 	 95.8973 	 1.017 	 53.570
0.1765717 	 2.0924476 	 106.3455 	 1.019 	 53.529
0.1901047 	 2.2271695 	 116.7078 	 1.021 	 53.550
0.2030825 	 2.3660174 	 127.2282 	 1.023 	 53.535
0.2155299 	 2.5093785 	 137.2360 	 1.025 	 53.502
0.2274957 	 2.6564960 	 148.4155 	 1.027 	 53.464
0.2390098 	 2.8091543 	 159.2496 	 1.029 	 53.451
0.2500954 	 2.9660189 	 169.4952 	 1.032 	 53.448
0.2607705 	 3.1268496 	 179.2720 	 1.033 	 53.433
0.2710662 	 3.2920092 	 188.7164 	 1.035 	 53.426
0.2810016 	 3.4617486 	 199.0705 	 1.036 	 53.413
0.2905960 	 3.6339348 	 210.3930 	 1.039 	 53.388
0.2998676 	 3.8110271 	 221.1817 	 1.041 	 53.352
0.3088296 	 3.9927679 	 230.9681 	 1.042 	 53.340
0.3175141 	 4.1793463 	 242.0000 	 1.045 	 53.336
0.3259146 	 4.3709442 	 252.9495 	 1.046 	 53.339
0.3340578 	 4.5629884 	 263.5183 	 1.048 	 53.314
0.3419495 	 4.7622640 	 273.6627 	 1.051 	 53.309
0.3495980 	 4.9643593 	 284.3841 	 1.052 	 53.296
0.3570223 	 5.1686450 	 294.8028 	 1.054 	 53.279
0.3642341 	 5.3805294 	 303.6957 	 1.056 	 53.290
0.3712405 	 5.5943710 	 315.3607 	 1.058 	 53.286
0.3780510 	 5.8127396 	 325.9842 	 1.060 	 53.251
0.3846738 	 6.0344556 	 335.2112 	 1.062 	 53.210
0.3911200 	 6.2611285 	 347.2387 	 1.064 	 53.226
0.3973958 	 6.4909027 	 357.0182 	 1.065 	 53.212
0.4035024 	 6.7236263 	 367.5164 	 1.068 	 53.190
0.4094494 	 6.9628366 	 380.3443 	 1.069 	 53.193
0.4152430 	 7.2036090 	 391.5104 	 1.070 	 53.176
0.4208938 	 7.4504302 	 402.9798 	 1.072 	 53.149
0.4264068 	 7.6999592 	 413.3943 	 1.073 	 53.141
0.4317827 	 7.9527311 	 423.3878 	 1.075 	 53.150
0.4370277 	 8.2091300 	 435.6889 	 1.076 	 53.120
0.4421516 	 8.4715460 	 447.9372 	 1.077 	 53.110
0.4471553 	 8.7349693 	 457.1358 	 1.078 	 53.107
0.4520356 	 9.0033347 	 468.1651 	 1.079 	 53.092
0.4568106 	 9.2763571 	 480.1062 	 1.080 	 53.074
0.4614750 	 9.5483957 	 489.6674 	 1.081 	 53.046
0.4660361 	 9.8307897 	 504.4011 	 1.084 	 53.049
0.4705010 	 10.1127645 	 515.9963 	 1.084 	 53.018
0.4748664 	 10.3971432 	 530.8810 	 1.085 	 52.996
0.4791352 	 10.6909092 	 543.8855 	 1.087 	 53.012
0.4833168 	 10.9857963 	 559.3317 	 1.088 	 53.006
0.4874109 	 11.2875370 	 568.5535 	 1.087 	 52.999
0.4914227 	 11.5835249 	 572.3462 	 1.088 	 52.981
0.4953521 	 11.8950702 	 580.1604 	 1.089 	 52.962
0.4992010 	 12.2010580 	 586.8527 	 1.089 	 52.941
0.5029715 	 12.5162513 	 597.0469 	 1.090 	 52.946
0.5066673 	 12.8357240 	 605.6180 	 1.090 	 52.957
0.5102909 	 13.1550364 	 618.3753 	 1.091 	 52.926
0.5138473 	 13.4811603 	 627.3173 	 1.092 	 52.910
0.5173365 	 13.8059657 	 636.7820 	 1.092 	 52.906
0.5207552 	 14.1406216 	 647.7840 	 1.092 	 52.893
0.5241101 	 14.4753598 	 663.2390 	 1.092 	 52.880
0.5274016 	 14.8150211 	 677.7661 	 1.093 	 52.875
0.5306340 	 15.1660115 	 689.9827 	 1.092 	 52.866
0.5338066 	 15.5134832 	 705.5707 	 1.092 	 52.857
0.5369255 	 15.8651241 	 727.0618 	 1.093 	 52.850
0.5399840 	 16.2191028 	 742.8010 	 1.092 	 52.833
0.5429894 	 16.5893434 	 760.4319 	 1.091 	 52.865
0.5459409 	 16.9530675 	 796.7605 	 1.089 	 52.846
0.5488390 	 17.3173476 	 841.0637 	 1.090 	 52.826
0.5516886 	 17.6911161 	 888.3800 	 1.089 	 52.833
0.5544887 	 18.0722258 	 962.0362 	 1.088 	 52.810
0.5572423 	 18.4455151 	 1052.0812 	 1.087 	 52.799
0.5599519 	 18.8298372 	 1193.3860 	 1.087 	 52.799
0.5626129 	 19.2304096 	 1398.2510 	 1.085 	 52.811
0.5652316 	 19.6181858 	 1738.2148 	 1.083 	 52.776
0.5678045 	 20.0058011 	 2333.6305 	 1.082 	 52.795
0.5703377 	 20.4089730 	 3336.5242 	 1.080 	 52.804
0.5728299 	 20.8072157 	 5025.0989 	 1.076 	 52.791
0.5752822 	 21.2168541 	 8174.1895 	 1.072 	 52.810
0.5776965 	 21.6342953 	 13439.6910 	 1.068 	 52.822
0.5800701 	 22.0486941 	 21498.6712 	 1.064 	 52.836
0.5824056 	 22.5026384 	 33173.7288 	 1.061 	 52.872
0.5847003 	 22.9571923 	 49379.9168 	 1.058 	 52.875
0.5869537 	 23.4664662 	 69361.1899 	 1.057 	 52.936
0.5891662 	 23.9947800 	 91873.9046 	 1.058 	 52.947
0.5913348 	 24.5607080 	 118078.4629 	 1.059 	 52.968
0.5934574 	 25.1741472 	 142829.1430 	 1.060 	 53.000
0.5955328 	 25.8368962 	 166572.8939 	 1.063 	 53.010
0.5975576 	 26.5274488 	 186987.8199 	 1.068 	 53.006
0.5995329 	 27.2711587 	 206726.7006 	 1.072 	 53.022
0.6014574 	 28.0492875 	 224011.3784 	 1.076 	 53.033
0.6033331 	 28.8844147 	 238347.6657 	 1.081 	 53.049
0.6051587 	 29.7213898 	 252119.6211 	 1.086 	 53.044
0.6069358 	 30.6277414 	 263587.0448 	 1.090 	 53.032
0.6086629 	 31.5661708 	 275500.5566 	 1.094 	 53.049
0.6103414 	 32.5320717 	 287059.5573 	 1.099 	 53.048
0.6119724 	 33.5326961 	 298013.3224 	 1.102 	 53.032
0.6135571 	 34.5940783 	 306406.7070 	 1.108 	 53.000
0.6150958 	 35.7002264 	 317389.1566 	 1.111 	 53.017
0.6165883 	 36.8311943 	 327052.3327 	 1.114 	 52.995
0.6180362 	 38.0067575 	 338195.2856 	 1.117 	 52.971
0.6194413 	 39.2404947 	 348628.1003 	 1.119 	 52.974
0.6208050 	 40.5101253 	 356016.1408 	 1.123 	 52.949
0.6221289 	 41.8448747 	 363948.8865 	 1.126 	 52.928
0.6234110 	 43.2129785 	 375228.4532 	 1.129 	 52.907
0.6246535 	 44.6190803 	 381167.9404 	 1.131 	 52.865
0.6258588 	 46.1145874 	 389475.5123 	 1.134 	 52.843
0.6270266 	 47.6655063 	 396508.2860 	 1.137 	 52.834
0.6281582 	 49.2607027 	 407043.0893 	 1.138 	 52.812
0.6292529 	 50.8993232 	 416512.8604 	 1.140 	 52.811
