N=60 	 R=1000000 	 s=1 	 Save [density, Z, rho_t, like/unlike, events per sweep]
0.0002268 	 1.0008619 	 1.1028 	 0.997 	 7.113
0.0220417 	 1.1832379 	 12.0138 	 0.960 	 35.108
0.0428447 	 1.2260355 	 22.4755 	 0.997 	 47.979
0.0625715 	 1.3034481 	 33.0431 	 1.007 	 51.546
0.0812753 	 1.3959477 	 43.7024 	 1.008 	 52.631
0.0990615 	 1.4965414 	 54.1656 	 1.010 	 53.116
0.1160259 	 1.6044724 	 64.1949 	 1.011 	 53.389
0.1321951 	 1.7180794 	 74.1187 	 1.014 	 53.452
0.1476395 	 1.8360870 	 84.7060 	 1.015 	 53.576
0.1624021 	 1.9617538 	 95.2331 	 1.016 	 53.570
0.1765260 	 2.0920830 	 105.9092 	 1.019 	 53.574
0.1900675 	 2.2268395 	 116.5408 	 1.021 	 53.527
0.2030534 	 2.3652915 	 126.4587 	 1.023 	 53.485
0.2155051 	 2.5094546 	 136.7629 	 1.025 	 53.501
0.2274771 	 2.6569609 	 146.9156 	 1.027 	 53.492
0.2389921 	 2.8096063 	 157.3351 	 1.029 	 53.475
0.2500791 	 2.9661280 	 167.0162 	 1.031 	 53.452
0.2607683 	 3.1267869 	 177.7278 	 1.032 	 53.425
0.2710599 	 3.2911281 	 188.7217 	 1.034 	 53.418
0.2809985 	 3.4608095 	 199.6928 	 1.037 	 53.390
0.2905854 	 3.6345742 	 209.5325 	 1.039 	 53.407
0.2998607 	 3.8123957 	 222.1848 	 1.040 	 53.385
0.3088260 	 3.9943465 	 232.1771 	 1.042 	 53.371
0.3175030 	 4.1804277 	 242.6597 	 1.043 	 53.353
0.3259068 	 4.3699717 	 255.2700 	 1.047 	 53.326
0.3340449 	 4.5621604 	 264.5503 	 1.049 	 53.302
0.3419367 	 4.7618787 	 273.4198 	 1.050 	 53.320
0.3495892 	 4.9631767 	 281.7569 	 1.052 	 53.299
0.3570199 	 5.1700163 	 292.2163 	 1.054 	 53.285
0.3642346 	 5.3800278 	 303.8326 	 1.056 	 53.264
0.3712450 	 5.5949912 	 314.7874 	 1.058 	 53.279
0.3780533 	 5.8133064 	 325.5247 	 1.059 	 53.278
0.3846745 	 6.0352802 	 339.1780 	 1.062 	 53.248
0.3911193 	 6.2610337 	 351.2529 	 1.064 	 53.248
0.3973954 	 6.4899399 	 359.8285 	 1.065 	 53.216
0.4035004 	 6.7237303 	 373.0895 	 1.066 	 53.181
0.4094509 	 6.9615187 	 382.5910 	 1.068 	 53.169
0.4152533 	 7.2041255 	 393.4615 	 1.069 	 53.167
0.4209021 	 7.4492887 	 402.5969 	 1.071 	 53.164
0.4264060 	 7.6984635 	 411.0321 	 1.072 	 53.131
0.4317808 	 7.9521769 	 420.9743 	 1.074 	 53.120
0.4370239 	 8.2093664 	 429.6418 	 1.075 	 53.133
0.4421434 	 8.4719060 	 440.8685 	 1.077 	 53.094
0.4471474 	 8.7358121 	 452.9978 	 1.078 	 53.099
0.4520271 	 9.0010984 	 462.0867 	 1.079 	 53.068
0.4567964 	 9.2714362 	 470.6863 	 1.080 	 53.043
0.4614647 	 9.5484819 	 483.0471 	 1.081 	 53.042
0.4660280 	 9.8300588 	 492.8236 	 1.082 	 53.040
0.4704903 	 10.1140259 	 499.9388 	 1.083 	 53.032
0.4748552 	 10.3991953 	 508.4853 	 1.084 	 53.016
0.4791293 	 10.6905345 	 516.8011 	 1.085 	 53.013
0.4833129 	 10.9851891 	 522.8745 	 1.085 	 52.998
0.4874064 	 11.2860048 	 535.5056 	 1.087 	 52.991
0.4914167 	 11.5861546 	 544.0610 	 1.086 	 52.983
0.4953477 	 11.8923799 	 556.1358 	 1.088 	 52.945
0.4991947 	 12.2034775 	 564.4354 	 1.087 	 52.959
0.5029661 	 12.5170245 	 575.7157 	 1.089 	 52.965
0.5066608 	 12.8336625 	 587.3390 	 1.089 	 52.929
0.5102830 	 13.1572541 	 599.3859 	 1.090 	 52.912
0.5138351 	 13.4788992 	 612.7521 	 1.091 	 52.912
0.5173231 	 13.8073195 	 621.9352 	 1.090 	 52.897
0.5207424 	 14.1419002 	 632.0845 	 1.091 	 52.899
0.5240987 	 14.4785527 	 645.5649 	 1.091 	 52.874
0.5273927 	 14.8162856 	 655.2116 	 1.092 	 52.885
0.5306239 	 15.1663301 	 669.8930 	 1.091 	 52.883
0.5337986 	 15.5140941 	 686.5588 	 1.090 	 52.859
0.5369140 	 15.8682129 	 704.0258 	 1.090 	 52.860
0.5399767 	 16.2278893 	 728.1431 	 1.090 	 52.865
0.5429807 	 16.5828567 	 753.8242 	 1.089 	 52.845
0.5459347 	 16.9453472 	 782.4128 	 1.088 	 52.818
0.5488351 	 17.3191141 	 827.7279 	 1.089 	 52.844
0.5516856 	 17.6837091 	 896.2440 	 1.087 	 52.814
0.5544889 	 18.0656991 	 992.2704 	 1.087 	 52.804
0.5572415 	 18.4391136 	 1146.2616 	 1.085 	 52.819
0.5599504 	 18.8146208 	 1433.9246 	 1.083 	 52.805
0.5626130 	 19.1988286 	 1937.9403 	 1.080 	 52.797
0.5652321 	 19.5915258 	 2847.2658 	 1.078 	 52.791
0.5678124 	 19.9725100 	 4539.9622 	 1.075 	 52.787
0.5703521 	 20.3568802 	 7141.6403 	 1.070 	 52.771
0.5728501 	 20.7641401 	 11300.3456 	 1.066 	 52.773
0.5753077 	 21.1841105 	 17229.2434 	 1.061 	 52.757
0.5777227 	 21.6153257 	 25094.1841 	 1.055 	 52.755
0.5800976 	 22.0694311 	 35201.0119 	 1.049 	 52.727
0.5824288 	 22.5437900 	 45037.4380 	 1.044 	 52.736
0.5847184 	 23.0444229 	 55488.3517 	 1.038 	 52.736
0.5869646 	 23.5432717 	 66702.1347 	 1.033 	 52.715
0.5891681 	 24.0750675 	 79061.0758 	 1.028 	 52.754
0.5913294 	 24.6105356 	 96743.4029 	 1.022 	 52.773
0.5934512 	 25.1285854 	 123923.0604 	 1.015 	 52.792
0.5955360 	 25.6664014 	 166292.0166 	 1.008 	 52.837
0.5975812 	 26.2082099 	 222625.2322 	 1.001 	 52.864
0.5995895 	 26.7576957 	 297741.4075 	 0.992 	 52.899
0.6015604 	 27.3647267 	 379503.9783 	 0.985 	 52.921
0.6034908 	 28.0097190 	 463038.2560 	 0.976 	 52.951
0.6053790 	 28.7192564 	 540849.9229 	 0.970 	 52.976
0.6072233 	 29.4932485 	 610632.0847 	 0.965 	 52.988
0.6090233 	 30.3234527 	 675088.8740 	 0.961 	 52.991
0.6107742 	 31.2164381 	 729727.7642 	 0.958 	 52.983
0.6124778 	 32.1638099 	 775319.4100 	 0.955 	 52.991
0.6141326 	 33.1654656 	 813231.4292 	 0.954 	 52.978
0.6157404 	 34.2254684 	 841457.6526 	 0.952 	 53.009
0.6173016 	 35.3339758 	 867412.9614 	 0.951 	 53.009
0.6188151 	 36.5074838 	 886277.7901 	 0.949 	 53.026
0.6202816 	 37.7186628 	 904171.2518 	 0.948 	 53.031
0.6217040 	 38.9819709 	 916903.3790 	 0.947 	 53.033
0.6230815 	 40.2925453 	 925957.9917 	 0.945 	 53.065
0.6244152 	 41.6532212 	 935407.2400 	 0.943 	 53.077
0.6257079 	 43.0373080 	 944461.4078 	 0.940 	 53.058
0.6269601 	 44.5102803 	 951251.7176 	 0.937 	 53.114
0.6281733 	 45.9706206 	 958617.2615 	 0.933 	 53.117
0.6293498 	 47.5104992 	 963786.2780 	 0.929 	 53.152
