N=60 	 R=1000000 	 s=1 	 Save [density, Z, rho_t, like/unlike, events per sweep]
0.0002274 	 1.0008588 	 1.1027 	 0.991 	 7.113
0.0220537 	 1.1832145 	 11.9729 	 0.961 	 35.124
0.0428683 	 1.2259434 	 22.5598 	 0.998 	 47.964
0.0625766 	 1.3033966 	 32.6771 	 1.006 	 51.542
0.0812918 	 1.3960279 	 43.2632 	 1.007 	 52.634
0.0990954 	 1.4967516 	 53.6893 	 1.010 	 53.126
0.1160453 	 1.6043584 	 64.5319 	 1.011 	 53.343
0.1322246 	 1.7185427 	 75.0327 	 1.013 	 53.459
0.1476656 	 1.8366719 	 85.2279 	 1.015 	 53.595
0.1624308 	 1.9619110 	 96.1346 	 1.017 	 53.589
0.1765650 	 2.0920854 	 106.8151 	 1.019 	 53.540
0.1900998 	 2.2271502 	 117.2779 	 1.022 	 53.528
0.2030682 	 2.3660464 	 127.1311 	 1.023 	 53.518
0.2155254 	 2.5097855 	 138.2014 	 1.026 	 53.490
0.2274939 	 2.6570331 	 147.9468 	 1.027 	 53.472
0.2390012 	 2.8090967 	 158.2249 	 1.029 	 53.441
0.2500838 	 2.9656136 	 167.3294 	 1.031 	 53.439
0.2607686 	 3.1270142 	 177.4958 	 1.032 	 53.442
0.2710625 	 3.2916867 	 187.6002 	 1.034 	 53.421
0.2809993 	 3.4607289 	 198.5818 	 1.036 	 53.400
0.2905947 	 3.6339529 	 208.7109 	 1.039 	 53.384
0.2998661 	 3.8122965 	 219.2243 	 1.041 	 53.388
0.3088283 	 3.9930322 	 229.1871 	 1.042 	 53.357
0.3175034 	 4.1791786 	 238.7032 	 1.045 	 53.349
0.3259029 	 4.3699166 	 250.2039 	 1.047 	 53.336
0.3340424 	 4.5635811 	 261.5816 	 1.048 	 53.322
0.3419343 	 4.7615166 	 270.3786 	 1.050 	 53.300
0.3495899 	 4.9632724 	 281.1081 	 1.053 	 53.304
0.3570142 	 5.1692693 	 291.1439 	 1.054 	 53.273
0.3642212 	 5.3796180 	 301.2155 	 1.056 	 53.272
0.3712280 	 5.5937410 	 310.9575 	 1.058 	 53.284
0.3780368 	 5.8131361 	 320.3413 	 1.060 	 53.259
0.3846607 	 6.0328625 	 331.0919 	 1.062 	 53.235
0.3910993 	 6.2594390 	 342.2718 	 1.063 	 53.197
0.3973712 	 6.4890994 	 353.2802 	 1.065 	 53.219
0.4034792 	 6.7237927 	 364.6803 	 1.067 	 53.193
0.4094266 	 6.9608471 	 372.3375 	 1.069 	 53.168
0.4152225 	 7.2032097 	 380.8385 	 1.069 	 53.174
0.4208766 	 7.4495176 	 390.3598 	 1.072 	 53.156
0.4263853 	 7.6979715 	 400.4831 	 1.074 	 53.147
0.4317601 	 7.9505866 	 408.6127 	 1.075 	 53.131
0.4370039 	 8.2081904 	 417.8188 	 1.075 	 53.111
0.4421266 	 8.4672855 	 427.0231 	 1.078 	 53.095
0.4471277 	 8.7339248 	 436.9119 	 1.078 	 53.110
0.4520157 	 9.0022602 	 449.4790 	 1.079 	 53.089
0.4567909 	 9.2752395 	 459.4584 	 1.081 	 53.059
0.4614566 	 9.5507228 	 468.7152 	 1.080 	 53.047
0.4660168 	 9.8298610 	 481.6958 	 1.082 	 53.031
0.4704775 	 10.1122246 	 493.5069 	 1.084 	 53.025
0.4748422 	 10.3990599 	 508.4230 	 1.085 	 53.019
0.4791162 	 10.6895911 	 521.0191 	 1.086 	 52.997
0.4832965 	 10.9865331 	 535.9083 	 1.087 	 52.997
0.4873930 	 11.2820447 	 544.3660 	 1.087 	 52.980
0.4914073 	 11.5894929 	 558.6618 	 1.087 	 52.991
0.4953341 	 11.8891841 	 572.2525 	 1.087 	 52.962
0.4991809 	 12.2015722 	 582.2689 	 1.089 	 52.957
0.5029540 	 12.5177461 	 591.9272 	 1.089 	 52.951
0.5066528 	 12.8320880 	 604.6750 	 1.089 	 52.934
0.5102757 	 13.1599388 	 614.9187 	 1.090 	 52.939
0.5138301 	 13.4745116 	 626.7085 	 1.091 	 52.907
0.5173146 	 13.8034567 	 639.0399 	 1.090 	 52.897
0.5207353 	 14.1439758 	 651.4185 	 1.090 	 52.927
0.5240911 	 14.4741385 	 667.8692 	 1.090 	 52.881
0.5273875 	 14.8141682 	 678.6214 	 1.089 	 52.873
0.5306199 	 15.1626612 	 696.1773 	 1.090 	 52.886
0.5337940 	 15.5155830 	 711.7202 	 1.090 	 52.866
0.5369122 	 15.8684749 	 733.2803 	 1.091 	 52.876
0.5399750 	 16.2141381 	 762.3599 	 1.089 	 52.842
0.5429796 	 16.5794508 	 781.9632 	 1.090 	 52.837
0.5459311 	 16.9473590 	 803.6742 	 1.089 	 52.812
0.5488321 	 17.3190007 	 839.0236 	 1.088 	 52.813
0.5516797 	 17.6889712 	 884.0679 	 1.088 	 52.798
0.5544788 	 18.0768244 	 948.0546 	 1.088 	 52.821
0.5572325 	 18.4642774 	 1038.2045 	 1.085 	 52.841
0.5599376 	 18.8424126 	 1165.6919 	 1.087 	 52.801
0.5625990 	 19.2348549 	 1333.9658 	 1.086 	 52.794
0.5652123 	 19.6392758 	 1579.8053 	 1.084 	 52.782
0.5677822 	 20.0593933 	 1939.8428 	 1.083 	 52.767
0.5703086 	 20.4912289 	 2446.0429 	 1.083 	 52.784
0.5727867 	 20.9249462 	 3165.1384 	 1.081 	 52.770
0.5752219 	 21.3946863 	 4173.4333 	 1.081 	 52.785
0.5776111 	 21.8656788 	 5467.1246 	 1.079 	 52.746
0.5799560 	 22.3669232 	 7145.3795 	 1.079 	 52.746
0.5822526 	 22.8951568 	 9214.4309 	 1.080 	 52.755
0.5845014 	 23.4496538 	 11533.4654 	 1.082 	 52.727
0.5867028 	 24.0397328 	 13789.3567 	 1.082 	 52.707
0.5888542 	 24.6662198 	 16122.0618 	 1.082 	 52.727
0.5909560 	 25.3135507 	 18659.7100 	 1.084 	 52.676
0.5930075 	 25.9864933 	 20971.7744 	 1.083 	 52.685
0.5950114 	 26.6989101 	 23280.2330 	 1.085 	 52.697
0.5969651 	 27.4351621 	 25635.4197 	 1.086 	 52.687
0.5988719 	 28.1937600 	 27956.2849 	 1.087 	 52.654
0.6007295 	 28.9933727 	 30272.8224 	 1.088 	 52.674
0.6025403 	 29.8113395 	 33064.0524 	 1.090 	 52.663
0.6043050 	 30.6683601 	 36150.5261 	 1.090 	 52.660
0.6060253 	 31.5214100 	 39948.0926 	 1.089 	 52.657
0.6077009 	 32.4203845 	 43724.3701 	 1.088 	 52.639
0.6093328 	 33.3586926 	 48896.9184 	 1.088 	 52.648
0.6109214 	 34.3243601 	 54183.2990 	 1.086 	 52.643
0.6124700 	 35.2944745 	 59854.1857 	 1.084 	 52.640
0.6139753 	 36.3138650 	 66548.6795 	 1.083 	 52.629
0.6154405 	 37.3841535 	 73139.4007 	 1.081 	 52.643
0.6168683 	 38.4708225 	 80916.1854 	 1.079 	 52.619
0.6182569 	 39.5903860 	 88806.6759 	 1.079 	 52.639
0.6196073 	 40.7400580 	 97537.8613 	 1.078 	 52.621
0.6209213 	 41.9683626 	 105667.5165 	 1.078 	 52.627
0.6221991 	 43.2056170 	 114807.9318 	 1.080 	 52.613
0.6234406 	 44.5001748 	 122624.6531 	 1.081 	 52.606
0.6246488 	 45.8769027 	 130492.2142 	 1.082 	 52.623
0.6258226 	 47.2697370 	 139116.8780 	 1.085 	 52.613
0.6269625 	 48.7471159 	 147158.8258 	 1.087 	 52.615
0.6280678 	 50.2465076 	 156324.5303 	 1.087 	 52.590
0.6291426 	 51.8276178 	 166339.2077 	 1.090 	 52.571
