N=60 	 R=1000000 	 s=1 	 Save [density, Z, rho_t, like/unlike, events per sweep]
0.0002252 	 1.0008492 	 1.1026 	 0.993 	 7.112
0.0220682 	 1.1832702 	 12.0471 	 0.960 	 35.136
0.0428456 	 1.2259386 	 22.5454 	 0.997 	 47.976
0.0625816 	 1.3034540 	 33.1812 	 1.007 	 51.560
0.0812872 	 1.3961183 	 43.6956 	 1.008 	 52.666
0.0990842 	 1.4966278 	 53.9076 	 1.009 	 53.139
0.1160271 	 1.6043034 	 64.5512 	 1.011 	 53.358
0.1321929 	 1.7180468 	 74.9277 	 1.013 	 53.462
0.1476397 	 1.8362920 	 85.5579 	 1.015 	 53.592
0.1623977 	 1.9620929 	 96.4135 	 1.017 	 53.578
0.1765288 	 2.0921089 	 106.9369 	 1.019 	 53.553
0.1900575 	 2.2265795 	 117.2670 	 1.021 	 53.521
0.2030346 	 2.3653188 	 128.0915 	 1.023 	 53.505
0.2154939 	 2.5090106 	 137.7602 	 1.025 	 53.496
0.2274709 	 2.6567537 	 147.6348 	 1.027 	 53.467
0.2389855 	 2.8087736 	 158.4656 	 1.029 	 53.461
0.2500639 	 2.9657992 	 169.4367 	 1.031 	 53.457
0.2607393 	 3.1266754 	 179.2194 	 1.033 	 53.440
0.2710302 	 3.2915676 	 190.0059 	 1.035 	 53.424
0.2809658 	 3.4606484 	 202.2676 	 1.037 	 53.423
0.2905615 	 3.6349079 	 213.0668 	 1.039 	 53.418
0.2998335 	 3.8111420 	 223.1180 	 1.041 	 53.383
0.3087984 	 3.9940225 	 233.6626 	 1.043 	 53.380
0.3174715 	 4.1790912 	 244.1974 	 1.045 	 53.351
0.3258687 	 4.3694959 	 252.5830 	 1.046 	 53.345
0.3340053 	 4.5619625 	 260.6177 	 1.048 	 53.339
0.3418939 	 4.7598529 	 269.6220 	 1.049 	 53.301
0.3495507 	 4.9629790 	 281.1017 	 1.053 	 53.303
0.3569787 	 5.1691843 	 291.2327 	 1.054 	 53.300
0.3641869 	 5.3792092 	 301.4190 	 1.056 	 53.281
0.3711973 	 5.5912456 	 314.2933 	 1.058 	 53.249
0.3780138 	 5.8114864 	 322.9173 	 1.060 	 53.250
0.3846369 	 6.0322456 	 334.1945 	 1.061 	 53.227
0.3910800 	 6.2605154 	 343.5747 	 1.063 	 53.231
0.3973530 	 6.4876522 	 352.4646 	 1.064 	 53.189
0.4034603 	 6.7224734 	 363.2681 	 1.067 	 53.186
0.4094085 	 6.9589535 	 374.1134 	 1.068 	 53.170
0.4152015 	 7.2039889 	 385.8527 	 1.070 	 53.180
0.4208544 	 7.4475831 	 398.2481 	 1.071 	 53.149
0.4263688 	 7.6971056 	 405.9344 	 1.073 	 53.133
0.4317412 	 7.9506697 	 416.4872 	 1.074 	 53.126
0.4369884 	 8.2065802 	 426.6074 	 1.075 	 53.124
0.4421083 	 8.4663306 	 437.3239 	 1.077 	 53.107
0.4471086 	 8.7311588 	 445.4344 	 1.077 	 53.076
0.4519931 	 8.9992900 	 452.6583 	 1.080 	 53.079
0.4567693 	 9.2737476 	 460.1070 	 1.080 	 53.074
0.4614392 	 9.5513346 	 471.0877 	 1.080 	 53.056
0.4660081 	 9.8283954 	 484.8649 	 1.082 	 53.035
0.4704707 	 10.1116640 	 495.8994 	 1.084 	 53.033
0.4748376 	 10.3979906 	 509.7745 	 1.085 	 53.018
0.4791089 	 10.6901856 	 522.2859 	 1.085 	 53.023
0.4832898 	 10.9827221 	 534.2217 	 1.086 	 52.990
0.4873895 	 11.2810435 	 545.1715 	 1.086 	 52.983
0.4913980 	 11.5819481 	 552.9939 	 1.088 	 52.964
0.4953251 	 11.8925337 	 569.5028 	 1.088 	 52.972
0.4991740 	 12.2041635 	 583.8067 	 1.088 	 52.962
0.5029447 	 12.5199321 	 591.9614 	 1.090 	 52.944
0.5066423 	 12.8338301 	 603.5543 	 1.090 	 52.951
0.5102663 	 13.1508742 	 616.1059 	 1.090 	 52.934
0.5138204 	 13.4734307 	 628.2514 	 1.089 	 52.904
0.5173081 	 13.8032515 	 640.4335 	 1.090 	 52.886
0.5207314 	 14.1316474 	 652.5249 	 1.090 	 52.904
0.5240870 	 14.4710547 	 665.8019 	 1.090 	 52.884
0.5273827 	 14.8166375 	 679.0546 	 1.090 	 52.901
0.5306180 	 15.1630833 	 690.7299 	 1.091 	 52.884
0.5337938 	 15.5076232 	 700.2890 	 1.090 	 52.856
0.5369088 	 15.8569138 	 713.4794 	 1.090 	 52.848
0.5399701 	 16.2168840 	 746.9850 	 1.090 	 52.869
0.5429796 	 16.5771186 	 766.7679 	 1.089 	 52.836
0.5459319 	 16.9433499 	 806.1980 	 1.088 	 52.829
0.5488329 	 17.3064923 	 857.8698 	 1.088 	 52.809
0.5516859 	 17.6732496 	 928.6492 	 1.087 	 52.820
0.5544873 	 18.0560945 	 1032.8891 	 1.086 	 52.818
0.5572421 	 18.4321573 	 1162.3814 	 1.085 	 52.807
0.5599516 	 18.8282527 	 1344.0640 	 1.085 	 52.810
0.5626151 	 19.2193392 	 1605.6045 	 1.083 	 52.813
0.5652327 	 19.6139572 	 2025.6272 	 1.083 	 52.806
0.5678041 	 20.0308055 	 2622.0083 	 1.083 	 52.806
0.5703332 	 20.4580117 	 3617.0968 	 1.081 	 52.820
0.5728201 	 20.8900999 	 5005.2531 	 1.079 	 52.811
0.5752597 	 21.3355235 	 7055.3291 	 1.076 	 52.802
0.5776542 	 21.8023809 	 9848.7938 	 1.074 	 52.784
0.5800038 	 22.3069195 	 13620.6749 	 1.071 	 52.820
0.5823083 	 22.8228856 	 18673.1466 	 1.069 	 52.802
0.5845661 	 23.3758880 	 24358.0165 	 1.064 	 52.796
0.5867756 	 23.9473103 	 31745.9990 	 1.060 	 52.808
0.5889378 	 24.5473917 	 39739.3307 	 1.055 	 52.820
0.5910521 	 25.1764806 	 48288.6623 	 1.049 	 52.840
0.5931175 	 25.8325900 	 57648.2664 	 1.042 	 52.824
0.5951357 	 26.5202265 	 66811.5925 	 1.036 	 52.832
0.5971044 	 27.2450206 	 76728.9234 	 1.029 	 52.869
0.5990259 	 27.9956724 	 89414.0584 	 1.020 	 52.896
0.6009021 	 28.7667171 	 102847.4243 	 1.011 	 52.907
0.6027281 	 29.5557191 	 121017.2071 	 1.001 	 52.950
0.6045095 	 30.3762259 	 145779.8829 	 0.991 	 52.959
0.6062458 	 31.2133217 	 178353.8517 	 0.979 	 52.991
0.6079402 	 32.0833887 	 218528.8563 	 0.968 	 53.024
0.6095921 	 32.9750480 	 269089.2970 	 0.957 	 53.067
0.6112013 	 33.9059482 	 326667.4110 	 0.946 	 53.079
0.6127683 	 34.8855526 	 387041.5572 	 0.936 	 53.139
0.6142933 	 35.8900444 	 447115.1490 	 0.928 	 53.145
0.6157778 	 36.9496631 	 507818.7100 	 0.921 	 53.176
0.6172205 	 38.0858563 	 553931.3531 	 0.916 	 53.180
0.6186228 	 39.2805096 	 589738.9621 	 0.914 	 53.190
0.6199838 	 40.5372966 	 618716.7119 	 0.914 	 53.199
0.6213048 	 41.8338684 	 633069.3640 	 0.915 	 53.197
0.6225847 	 43.2095842 	 640973.1660 	 0.917 	 53.210
0.6238262 	 44.6397278 	 632428.4245 	 0.922 	 53.186
0.6250301 	 46.1197832 	 613810.5432 	 0.928 	 53.156
0.6261962 	 47.6197570 	 577246.6916 	 0.937 	 53.155
0.6273268 	 49.1816979 	 534338.2938 	 0.948 	 53.115
0.6284234 	 50.7586303 	 480863.5371 	 0.962 	 53.114
0.6294875 	 52.3570299 	 415680.9981 	 0.981 	 53.084
