N=60 	 R=1000000 	 s=1 	 Save [density, Z, rho_t, like/unlike, events per sweep]
0.0002270 	 1.0008635 	 1.1026 	 0.995 	 7.114
0.0220875 	 1.1832267 	 12.0125 	 0.961 	 35.149
0.0428855 	 1.2260345 	 22.6052 	 0.997 	 48.000
0.0626004 	 1.3036807 	 33.0825 	 1.006 	 51.568
0.0813169 	 1.3962398 	 43.5083 	 1.008 	 52.638
0.0991124 	 1.4969399 	 53.9188 	 1.009 	 53.145
0.1160640 	 1.6044801 	 64.5932 	 1.011 	 53.368
0.1322304 	 1.7184638 	 75.4329 	 1.013 	 53.466
0.1476627 	 1.8364248 	 85.6485 	 1.015 	 53.586
0.1624236 	 1.9620342 	 95.6978 	 1.016 	 53.563
0.1765551 	 2.0919247 	 106.0185 	 1.019 	 53.533
0.1900950 	 2.2268921 	 115.3733 	 1.021 	 53.509
0.2030698 	 2.3658918 	 125.0546 	 1.024 	 53.511
0.2155264 	 2.5094102 	 135.0846 	 1.026 	 53.486
0.2274818 	 2.6568771 	 146.6176 	 1.027 	 53.483
0.2389954 	 2.8092820 	 157.7671 	 1.029 	 53.463
0.2500803 	 2.9652091 	 167.9690 	 1.031 	 53.420
0.2607525 	 3.1264219 	 177.9019 	 1.032 	 53.440
0.2710457 	 3.2911174 	 187.2422 	 1.034 	 53.396
0.2809788 	 3.4604404 	 198.8345 	 1.037 	 53.407
0.2905704 	 3.6337754 	 208.9629 	 1.039 	 53.388
0.2998439 	 3.8118168 	 217.5196 	 1.041 	 53.375
0.3088093 	 3.9933597 	 226.6149 	 1.043 	 53.367
0.3174848 	 4.1788234 	 237.3273 	 1.045 	 53.344
0.3258859 	 4.3687095 	 249.4782 	 1.047 	 53.322
0.3340251 	 4.5639022 	 258.7725 	 1.048 	 53.343
0.3419156 	 4.7610474 	 269.6850 	 1.050 	 53.303
0.3495700 	 4.9643344 	 279.8235 	 1.052 	 53.318
0.3569970 	 5.1698218 	 288.5723 	 1.054 	 53.278
0.3642099 	 5.3769815 	 299.9647 	 1.056 	 53.262
0.3712170 	 5.5928968 	 310.2187 	 1.058 	 53.253
0.3780339 	 5.8106292 	 320.0791 	 1.060 	 53.242
0.3846581 	 6.0333262 	 327.8802 	 1.063 	 53.221
0.3911043 	 6.2580687 	 339.9390 	 1.063 	 53.210
0.3973788 	 6.4889798 	 349.8913 	 1.065 	 53.208
0.4034778 	 6.7249740 	 360.8914 	 1.066 	 53.209
0.4094289 	 6.9608396 	 368.8805 	 1.067 	 53.194
0.4152244 	 7.2020371 	 377.3741 	 1.069 	 53.154
0.4208776 	 7.4487424 	 387.4597 	 1.071 	 53.156
0.4263901 	 7.6958367 	 401.7208 	 1.072 	 53.129
0.4317676 	 7.9504007 	 409.3181 	 1.075 	 53.141
0.4370155 	 8.2127259 	 415.3969 	 1.076 	 53.136
0.4421381 	 8.4675614 	 427.2541 	 1.077 	 53.092
0.4471344 	 8.7326080 	 439.8017 	 1.078 	 53.087
0.4520196 	 9.0019957 	 451.8210 	 1.080 	 53.071
0.4567913 	 9.2743488 	 463.8563 	 1.080 	 53.067
0.4614598 	 9.5472614 	 471.2904 	 1.081 	 53.049
0.4660248 	 9.8278968 	 476.5525 	 1.083 	 53.030
0.4704878 	 10.1156954 	 487.9480 	 1.084 	 53.049
0.4748516 	 10.4028876 	 497.9747 	 1.084 	 53.045
0.4791242 	 10.6888395 	 509.4599 	 1.086 	 52.999
0.4833024 	 10.9849621 	 519.3831 	 1.086 	 53.000
0.4873971 	 11.2827776 	 529.9382 	 1.087 	 52.980
0.4914056 	 11.5834500 	 539.5991 	 1.088 	 52.962
0.4953353 	 11.8863739 	 548.1364 	 1.087 	 52.957
0.4991860 	 12.2005056 	 559.4346 	 1.087 	 52.959
0.5029577 	 12.5106792 	 571.9532 	 1.089 	 52.932
0.5066551 	 12.8327648 	 579.5870 	 1.089 	 52.941
0.5102785 	 13.1562675 	 594.1971 	 1.089 	 52.949
0.5138327 	 13.4803658 	 608.9037 	 1.090 	 52.914
0.5173214 	 13.8062334 	 620.9339 	 1.090 	 52.933
0.5207411 	 14.1476998 	 635.6869 	 1.091 	 52.910
0.5240952 	 14.4752102 	 650.6649 	 1.090 	 52.873
0.5273902 	 14.8132617 	 665.1455 	 1.090 	 52.866
0.5306229 	 15.1623435 	 684.3710 	 1.091 	 52.877
0.5337982 	 15.5149709 	 700.6353 	 1.090 	 52.856
0.5369130 	 15.8655678 	 719.1475 	 1.090 	 52.866
0.5399733 	 16.2204618 	 735.9129 	 1.089 	 52.856
0.5429777 	 16.5849129 	 764.1109 	 1.088 	 52.854
0.5459310 	 16.9447343 	 791.8455 	 1.087 	 52.821
0.5488306 	 17.3115014 	 836.7232 	 1.086 	 52.822
0.5516808 	 17.6921153 	 890.8650 	 1.085 	 52.837
0.5544832 	 18.0667147 	 965.7547 	 1.083 	 52.813
0.5572377 	 18.4434747 	 1071.7173 	 1.081 	 52.818
0.5599441 	 18.8342611 	 1224.9031 	 1.080 	 52.808
0.5626050 	 19.2308630 	 1457.2843 	 1.079 	 52.801
0.5652201 	 19.6366763 	 1821.7079 	 1.077 	 52.819
0.5677897 	 20.0451934 	 2396.1335 	 1.073 	 52.811
0.5703188 	 20.4561198 	 3391.3794 	 1.069 	 52.816
0.5728060 	 20.8668393 	 4879.7536 	 1.067 	 52.779
0.5752492 	 21.2932672 	 7224.8841 	 1.062 	 52.783
0.5776527 	 21.7222588 	 10735.3567 	 1.056 	 52.770
0.5800166 	 22.1684078 	 15773.4528 	 1.052 	 52.786
0.5823374 	 22.6167049 	 23020.5139 	 1.046 	 52.760
0.5846213 	 23.0903152 	 32948.2896 	 1.041 	 52.780
0.5868658 	 23.5888979 	 46034.2613 	 1.037 	 52.817
0.5890674 	 24.0854500 	 61518.8778 	 1.034 	 52.788
0.5912268 	 24.6299181 	 79437.8923 	 1.032 	 52.811
0.5933448 	 25.1924140 	 99317.1158 	 1.031 	 52.800
0.5954187 	 25.8011711 	 119344.2025 	 1.032 	 52.807
0.5974503 	 26.4340922 	 139105.5431 	 1.032 	 52.789
0.5994343 	 27.1114754 	 158737.8478 	 1.034 	 52.779
0.6013740 	 27.8238244 	 178399.6329 	 1.036 	 52.773
0.6032682 	 28.5729474 	 196819.7411 	 1.038 	 52.757
0.6051161 	 29.3753536 	 214159.3109 	 1.039 	 52.760
0.6069168 	 30.1917170 	 232342.0977 	 1.042 	 52.746
0.6086695 	 31.0728081 	 248615.6420 	 1.043 	 52.732
0.6103758 	 31.9965264 	 263411.6021 	 1.045 	 52.713
0.6120362 	 32.9507796 	 278744.9572 	 1.048 	 52.689
0.6136511 	 33.9589421 	 291262.2803 	 1.050 	 52.688
0.6152206 	 35.0100953 	 300080.3528 	 1.053 	 52.666
0.6167449 	 36.1094058 	 305690.3122 	 1.057 	 52.627
0.6182239 	 37.2431694 	 309198.1376 	 1.060 	 52.597
0.6196605 	 38.4403293 	 309666.9839 	 1.064 	 52.594
0.6210547 	 39.6898163 	 305452.7674 	 1.068 	 52.587
0.6224064 	 40.9831602 	 301348.4746 	 1.073 	 52.597
0.6237181 	 42.2820729 	 294195.4756 	 1.078 	 52.545
0.6249907 	 43.6666742 	 287583.8310 	 1.085 	 52.545
0.6262246 	 45.0522925 	 282233.4903 	 1.091 	 52.515
0.6274214 	 46.5082576 	 278977.7163 	 1.099 	 52.527
0.6285830 	 47.9858858 	 281174.4808 	 1.107 	 52.503
0.6297089 	 49.5373293 	 287205.7988 	 1.114 	 52.507
