N=60 	 R=1000000 	 s=1 	 Save [density, Z, rho_t, like/unlike, events per sweep]
0.0002263 	 1.0008516 	 1.1026 	 1.002 	 7.112
0.0220531 	 1.1832488 	 12.0236 	 0.960 	 35.112
0.0428476 	 1.2258943 	 22.4872 	 0.998 	 47.971
0.0625766 	 1.3034255 	 32.8992 	 1.006 	 51.547
0.0812879 	 1.3960031 	 43.2832 	 1.008 	 52.634
0.0990908 	 1.4965001 	 53.8169 	 1.009 	 53.133
0.1160417 	 1.6042525 	 64.2936 	 1.012 	 53.345
0.1322212 	 1.7154123 	 74.7114 	 1.012 	 53.394
0.1476600 	 1.8363294 	 85.2260 	 1.015 	 53.593
0.1624148 	 1.9622119 	 95.2068 	 1.017 	 53.585
0.1765500 	 2.0922929 	 105.8301 	 1.018 	 53.533
0.1900810 	 2.2264026 	 116.0352 	 1.020 	 53.511
0.2030495 	 2.3656340 	 126.4185 	 1.023 	 53.500
0.2155160 	 2.5090684 	 137.0914 	 1.025 	 53.501
0.2274791 	 2.6570184 	 148.1971 	 1.027 	 53.471
0.2389948 	 2.8099904 	 158.3254 	 1.029 	 53.497
0.2500722 	 2.9661801 	 168.9139 	 1.031 	 53.455
0.2607532 	 3.1258421 	 179.0264 	 1.033 	 53.425
0.2710469 	 3.2913542 	 191.0247 	 1.035 	 53.423
0.2809835 	 3.4607282 	 200.1394 	 1.036 	 53.406
0.2905772 	 3.6347656 	 209.7367 	 1.038 	 53.403
0.2998422 	 3.8115593 	 218.7931 	 1.041 	 53.381
0.3088085 	 3.9937960 	 229.5926 	 1.043 	 53.364
0.3174926 	 4.1809600 	 240.0899 	 1.045 	 53.370
0.3258958 	 4.3692644 	 249.1272 	 1.047 	 53.343
0.3340332 	 4.5633993 	 258.0095 	 1.049 	 53.332
0.3419250 	 4.7623477 	 269.0940 	 1.050 	 53.332
0.3495775 	 4.9629227 	 279.4857 	 1.053 	 53.287
0.3570075 	 5.1684236 	 290.4531 	 1.054 	 53.274
0.3642169 	 5.3813591 	 300.3829 	 1.057 	 53.303
0.3712304 	 5.5938176 	 309.2891 	 1.059 	 53.261
0.3780359 	 5.8124083 	 317.5651 	 1.060 	 53.250
0.3846557 	 6.0336630 	 328.7584 	 1.062 	 53.235
0.3910959 	 6.2582130 	 337.2501 	 1.063 	 53.205
0.3973687 	 6.4877361 	 346.8648 	 1.065 	 53.203
0.4034771 	 6.7241727 	 355.4663 	 1.066 	 53.206
0.4094266 	 6.9615871 	 364.9720 	 1.069 	 53.179
0.4152232 	 7.2028533 	 375.8899 	 1.070 	 53.177
0.4208689 	 7.4477813 	 387.0415 	 1.071 	 53.150
0.4263780 	 7.6944153 	 398.6105 	 1.072 	 53.127
0.4317596 	 7.9517329 	 407.4493 	 1.074 	 53.130
0.4370054 	 8.2061012 	 418.9313 	 1.076 	 53.095
0.4421259 	 8.4714869 	 429.0501 	 1.077 	 53.116
0.4471284 	 8.7307693 	 439.7488 	 1.078 	 53.085
0.4520141 	 9.0000494 	 448.3579 	 1.079 	 53.063
0.4567891 	 9.2732385 	 459.6962 	 1.080 	 53.063
0.4614566 	 9.5510441 	 470.3688 	 1.082 	 53.062
0.4660209 	 9.8302406 	 482.0126 	 1.084 	 53.060
0.4704891 	 10.1132904 	 492.6148 	 1.085 	 53.049
0.4748552 	 10.4002815 	 502.1996 	 1.085 	 53.028
0.4791269 	 10.6895816 	 512.6807 	 1.085 	 53.010
0.4833075 	 10.9886094 	 522.3617 	 1.087 	 53.015
0.4873995 	 11.2838733 	 532.2641 	 1.088 	 52.983
0.4914084 	 11.5860657 	 537.7621 	 1.089 	 52.962
0.4953352 	 11.8922194 	 547.9832 	 1.088 	 52.970
0.4991845 	 12.2006002 	 557.3556 	 1.089 	 52.952
0.5029576 	 12.5142643 	 570.5524 	 1.089 	 52.946
0.5066544 	 12.8297507 	 580.8613 	 1.091 	 52.924
0.5102779 	 13.1484727 	 594.1429 	 1.090 	 52.923
0.5138339 	 13.4746529 	 607.8821 	 1.091 	 52.908
0.5173205 	 13.8044101 	 619.6204 	 1.092 	 52.901
0.5207385 	 14.1435254 	 627.7771 	 1.092 	 52.893
0.5240939 	 14.4794763 	 643.3076 	 1.092 	 52.901
0.5273884 	 14.8164933 	 650.9422 	 1.093 	 52.892
0.5306203 	 15.1633418 	 661.4913 	 1.092 	 52.866
0.5337938 	 15.5177584 	 679.9493 	 1.091 	 52.864
0.5369098 	 15.8581917 	 695.5393 	 1.091 	 52.837
0.5399707 	 16.2168664 	 717.5650 	 1.090 	 52.853
0.5429759 	 16.5687977 	 733.8543 	 1.091 	 52.813
0.5459308 	 16.9342786 	 762.4520 	 1.090 	 52.823
0.5488323 	 17.3048022 	 799.3123 	 1.090 	 52.831
0.5516826 	 17.6912975 	 845.7553 	 1.090 	 52.839
0.5544845 	 18.0647057 	 904.6590 	 1.089 	 52.832
0.5572356 	 18.4417897 	 988.6987 	 1.086 	 52.788
0.5599419 	 18.8454902 	 1098.7155 	 1.086 	 52.825
0.5626022 	 19.2377645 	 1243.9843 	 1.085 	 52.782
0.5652143 	 19.6444216 	 1469.3889 	 1.083 	 52.804
0.5677812 	 20.0625312 	 1778.7083 	 1.081 	 52.809
0.5703051 	 20.4919805 	 2257.7417 	 1.079 	 52.801
0.5727843 	 20.9306112 	 2995.0095 	 1.077 	 52.806
0.5752180 	 21.3734921 	 4157.3764 	 1.074 	 52.797
0.5776089 	 21.8457558 	 5960.0110 	 1.072 	 52.798
0.5799574 	 22.3058862 	 9156.6193 	 1.067 	 52.792
0.5822638 	 22.7906633 	 14339.0596 	 1.062 	 52.803
0.5845261 	 23.2959835 	 22628.5225 	 1.057 	 52.812
0.5867498 	 23.7843719 	 35187.6822 	 1.050 	 52.796
0.5889287 	 24.3213500 	 52807.2952 	 1.043 	 52.818
0.5910656 	 24.8746144 	 74707.4030 	 1.037 	 52.826
0.5931633 	 25.4470133 	 103729.0002 	 1.030 	 52.843
0.5952187 	 26.0267847 	 136086.1543 	 1.026 	 52.839
0.5972310 	 26.6413260 	 173087.9949 	 1.021 	 52.833
0.5991988 	 27.2920037 	 207997.1646 	 1.019 	 52.850
0.6011254 	 27.9766398 	 242841.0317 	 1.018 	 52.851
0.6030086 	 28.6843277 	 277763.9557 	 1.018 	 52.863
0.6048481 	 29.4385657 	 310218.6930 	 1.023 	 52.876
0.6066449 	 30.2398626 	 343638.5261 	 1.028 	 52.893
0.6083965 	 31.0732931 	 377039.0546 	 1.032 	 52.907
0.6101035 	 31.9479089 	 415970.0946 	 1.039 	 52.918
0.6117658 	 32.8433080 	 456436.1810 	 1.046 	 52.939
0.6133874 	 33.8039453 	 498687.4808 	 1.053 	 52.913
0.6149633 	 34.8062564 	 537721.7628 	 1.060 	 52.929
0.6164967 	 35.8565032 	 576225.1885 	 1.067 	 52.931
0.6179879 	 36.9581551 	 613190.8615 	 1.075 	 52.941
0.6194368 	 38.1227617 	 646964.7797 	 1.082 	 52.938
0.6208426 	 39.3090516 	 679241.3237 	 1.089 	 52.936
0.6222080 	 40.5789588 	 703664.8768 	 1.097 	 52.916
0.6235315 	 41.8864489 	 724445.7320 	 1.103 	 52.937
0.6248153 	 43.2535514 	 742482.8733 	 1.110 	 52.961
0.6260606 	 44.6521008 	 757348.5096 	 1.116 	 52.928
0.6272669 	 46.1430319 	 766941.9811 	 1.121 	 52.951
0.6284356 	 47.6584575 	 772167.4787 	 1.127 	 52.916
0.6295681 	 49.2812688 	 775474.2272 	 1.133 	 52.933
