N=60 	 R=1000000 	 s=1 	 Save [density, Z, rho_t, like/unlike, events per sweep]
0.0002259 	 1.0008566 	 1.1027 	 0.997 	 7.113
0.0220646 	 1.1833337 	 11.9898 	 0.961 	 35.132
0.0428770 	 1.2259336 	 22.5203 	 0.998 	 47.979
0.0625962 	 1.3034421 	 32.9883 	 1.006 	 51.550
0.0813133 	 1.3962625 	 43.2935 	 1.008 	 52.657
0.0991021 	 1.4966744 	 54.0789 	 1.010 	 53.110
0.1160628 	 1.6043094 	 64.2569 	 1.012 	 53.328
0.1322558 	 1.7186366 	 74.7471 	 1.013 	 53.482
0.1476854 	 1.8365068 	 85.3210 	 1.014 	 53.573
0.1624344 	 1.9619192 	 95.8534 	 1.016 	 53.559
0.1765522 	 2.0920526 	 106.7963 	 1.019 	 53.527
0.1900864 	 2.2265148 	 116.9694 	 1.021 	 53.522
0.2030673 	 2.3659976 	 126.3616 	 1.023 	 53.515
0.2155238 	 2.5092516 	 136.8110 	 1.025 	 53.475
0.2274958 	 2.6574291 	 147.2069 	 1.028 	 53.468
0.2390096 	 2.8092256 	 157.4807 	 1.030 	 53.464
0.2500973 	 2.9657100 	 168.6940 	 1.032 	 53.442
0.2607604 	 3.1272025 	 179.8798 	 1.033 	 53.442
0.2710566 	 3.2920965 	 190.6595 	 1.035 	 53.431
0.2809922 	 3.4611426 	 200.8080 	 1.037 	 53.415
0.2905881 	 3.6345319 	 210.6201 	 1.038 	 53.405
0.2998604 	 3.8120572 	 219.4667 	 1.040 	 53.401
0.3088275 	 3.9937408 	 228.7030 	 1.043 	 53.361
0.3174972 	 4.1790688 	 241.5937 	 1.045 	 53.344
0.3258977 	 4.3691954 	 253.0188 	 1.047 	 53.341
0.3340389 	 4.5619823 	 262.8204 	 1.048 	 53.325
0.3419277 	 4.7619669 	 273.6171 	 1.050 	 53.311
0.3495808 	 4.9643999 	 282.5617 	 1.053 	 53.316
0.3570068 	 5.1708870 	 292.0711 	 1.055 	 53.297
0.3642167 	 5.3793342 	 305.1397 	 1.056 	 53.279
0.3712225 	 5.5925498 	 316.4147 	 1.058 	 53.249
0.3780367 	 5.8109171 	 326.9995 	 1.060 	 53.239
0.3846623 	 6.0343675 	 337.9718 	 1.061 	 53.252
0.3911081 	 6.2598846 	 347.8768 	 1.064 	 53.222
0.3973778 	 6.4894244 	 358.8216 	 1.065 	 53.211
0.4034813 	 6.7249854 	 369.4365 	 1.067 	 53.223
0.4094299 	 6.9619929 	 377.0312 	 1.068 	 53.183
0.4152278 	 7.2037811 	 390.1558 	 1.070 	 53.174
0.4208805 	 7.4477439 	 399.9583 	 1.071 	 53.146
0.4263921 	 7.7008224 	 408.7615 	 1.073 	 53.159
0.4317666 	 7.9536065 	 419.1140 	 1.076 	 53.140
0.4370113 	 8.2078877 	 428.4714 	 1.076 	 53.108
0.4421345 	 8.4710253 	 439.8549 	 1.077 	 53.095
0.4471345 	 8.7341196 	 447.3536 	 1.078 	 53.095
0.4520212 	 9.0025929 	 460.2184 	 1.080 	 53.082
0.4567963 	 9.2756543 	 472.9202 	 1.081 	 53.067
0.4614649 	 9.5510509 	 487.7922 	 1.081 	 53.065
0.4660295 	 9.8277859 	 499.5573 	 1.083 	 53.035
0.4704909 	 10.1108461 	 510.5354 	 1.083 	 53.024
0.4748571 	 10.3973904 	 523.5295 	 1.084 	 53.023
0.4791280 	 10.6935359 	 534.2049 	 1.085 	 53.004
0.4833111 	 10.9825503 	 545.4779 	 1.086 	 52.986
0.4874060 	 11.2841790 	 553.8872 	 1.086 	 52.986
0.4914162 	 11.5862422 	 567.0534 	 1.086 	 52.987
0.4953429 	 11.8974268 	 579.6556 	 1.088 	 52.979
0.4991903 	 12.2013331 	 588.2885 	 1.088 	 52.951
0.5029595 	 12.5202928 	 594.0823 	 1.089 	 52.961
0.5066595 	 12.8328730 	 615.6817 	 1.090 	 52.934
0.5102866 	 13.1523988 	 628.0087 	 1.090 	 52.929
0.5138394 	 13.4764222 	 643.3040 	 1.090 	 52.904
0.5173236 	 13.8066494 	 658.0718 	 1.090 	 52.891
0.5207419 	 14.1387054 	 669.0393 	 1.090 	 52.903
0.5241004 	 14.4755331 	 683.1593 	 1.089 	 52.862
0.5273934 	 14.8174467 	 692.4411 	 1.090 	 52.849
0.5306242 	 15.1639991 	 706.8421 	 1.089 	 52.886
0.5338000 	 15.5083697 	 723.6541 	 1.089 	 52.852
0.5369148 	 15.8638991 	 738.6676 	 1.089 	 52.856
0.5399747 	 16.2256665 	 763.0632 	 1.088 	 52.858
0.5429793 	 16.5838746 	 787.6718 	 1.087 	 52.840
0.5459291 	 16.9552496 	 829.6021 	 1.088 	 52.830
0.5488283 	 17.3194907 	 871.8378 	 1.086 	 52.839
0.5516796 	 17.6986837 	 924.7360 	 1.087 	 52.835
0.5544791 	 18.0744909 	 974.7152 	 1.086 	 52.826
0.5572311 	 18.4582812 	 1066.1614 	 1.085 	 52.820
0.5599360 	 18.8490358 	 1181.3437 	 1.084 	 52.815
0.5625950 	 19.2369407 	 1352.4925 	 1.082 	 52.788
0.5652102 	 19.6388080 	 1615.4677 	 1.080 	 52.784
0.5677813 	 20.0566790 	 2014.4246 	 1.078 	 52.803
0.5703053 	 20.4786587 	 2704.5428 	 1.078 	 52.788
0.5727874 	 20.8971332 	 3933.4342 	 1.075 	 52.790
0.5752273 	 21.3311917 	 5978.3354 	 1.074 	 52.793
0.5776269 	 21.7591920 	 9481.7525 	 1.071 	 52.793
0.5799854 	 22.2042116 	 15178.7264 	 1.067 	 52.756
0.5823041 	 22.6536116 	 24692.5134 	 1.060 	 52.756
0.5845832 	 23.1151898 	 38454.6296 	 1.052 	 52.753
0.5868209 	 23.6021873 	 58322.0652 	 1.042 	 52.742
0.5890189 	 24.1055995 	 85404.7070 	 1.032 	 52.697
0.5911778 	 24.6529041 	 123255.4112 	 1.019 	 52.694
0.5932926 	 25.2064401 	 169595.3893 	 1.004 	 52.645
0.5953660 	 25.7977567 	 227849.7709 	 0.988 	 52.584
0.5973967 	 26.4197401 	 296176.0383 	 0.972 	 52.538
0.5993845 	 27.0790476 	 367463.7997 	 0.956 	 52.512
0.6013271 	 27.7652275 	 445108.3780 	 0.940 	 52.452
0.6032257 	 28.4935840 	 519851.3599 	 0.926 	 52.411
0.6050783 	 29.2553019 	 593967.2295 	 0.912 	 52.348
0.6068848 	 30.0648545 	 663026.9523 	 0.900 	 52.339
0.6086480 	 30.9159263 	 726990.7648 	 0.889 	 52.315
0.6103665 	 31.7782977 	 782041.2107 	 0.880 	 52.252
0.6120380 	 32.7056107 	 823282.5678 	 0.872 	 52.226
0.6136666 	 33.6991138 	 857493.0990 	 0.865 	 52.225
0.6152492 	 34.7101421 	 887186.8903 	 0.860 	 52.227
0.6167881 	 35.7518906 	 910460.3513 	 0.855 	 52.195
0.6182835 	 36.8595034 	 927797.5831 	 0.851 	 52.177
0.6197367 	 38.0008796 	 938588.5134 	 0.848 	 52.166
0.6211475 	 39.1842163 	 948401.3261 	 0.845 	 52.141
0.6225173 	 40.4248423 	 956768.7856 	 0.843 	 52.151
0.6238469 	 41.7287115 	 963212.2698 	 0.841 	 52.143
0.6251374 	 43.0442955 	 968177.9127 	 0.839 	 52.136
0.6263895 	 44.4247502 	 971379.1914 	 0.838 	 52.126
0.6276033 	 45.8691743 	 975232.0717 	 0.837 	 52.146
0.6287806 	 47.3595891 	 977933.6960 	 0.835 	 52.118
0.6299223 	 48.9038435 	 981181.1438 	 0.835 	 52.118
