N=60 	 R=1000000 	 s=1 	 Save [density, Z, rho_t, like/unlike, events per sweep]
0.0002252 	 1.0008555 	 1.1028 	 0.991 	 7.113
0.0220506 	 1.1833547 	 11.9465 	 0.960 	 35.097
0.0428599 	 1.2261013 	 22.4838 	 0.998 	 47.983
0.0625959 	 1.3036258 	 32.9665 	 1.006 	 51.569
0.0813115 	 1.3961841 	 43.4009 	 1.008 	 52.649
0.0991086 	 1.4968073 	 53.9262 	 1.009 	 53.142
0.1160767 	 1.6049141 	 64.9759 	 1.011 	 53.390
0.1322487 	 1.7184417 	 75.4837 	 1.014 	 53.466
0.1476833 	 1.8365340 	 85.5017 	 1.014 	 53.571
0.1624442 	 1.9621811 	 96.3771 	 1.017 	 53.585
0.1765673 	 2.0924618 	 106.4365 	 1.019 	 53.550
0.1901015 	 2.2266066 	 117.2295 	 1.021 	 53.541
0.2030907 	 2.3661805 	 127.8072 	 1.023 	 53.523
0.2155423 	 2.5094753 	 137.1922 	 1.025 	 53.481
0.2275096 	 2.6577508 	 147.2513 	 1.027 	 53.478
0.2390207 	 2.8093913 	 159.2018 	 1.029 	 53.453
0.2501066 	 2.9659867 	 170.6246 	 1.031 	 53.431
0.2607793 	 3.1272879 	 182.2819 	 1.033 	 53.451
0.2710782 	 3.2924857 	 192.3968 	 1.035 	 53.435
0.2810120 	 3.4622508 	 201.6443 	 1.037 	 53.423
0.2906054 	 3.6349927 	 211.5722 	 1.038 	 53.402
0.2998782 	 3.8125627 	 222.6552 	 1.040 	 53.373
0.3088501 	 3.9938596 	 231.3728 	 1.043 	 53.360
0.3175198 	 4.1803283 	 238.8456 	 1.044 	 53.347
0.3259199 	 4.3704328 	 248.6866 	 1.046 	 53.345
0.3340592 	 4.5642286 	 258.0105 	 1.048 	 53.322
0.3419486 	 4.7610256 	 268.2283 	 1.051 	 53.311
0.3496012 	 4.9650641 	 278.6588 	 1.052 	 53.303
0.3570309 	 5.1704055 	 289.0381 	 1.054 	 53.264
0.3642438 	 5.3784921 	 300.8753 	 1.056 	 53.266
0.3712522 	 5.5938789 	 311.4442 	 1.058 	 53.250
0.3780619 	 5.8133910 	 321.0435 	 1.060 	 53.255
0.3846831 	 6.0353892 	 330.0239 	 1.062 	 53.247
0.3911306 	 6.2599369 	 339.1525 	 1.064 	 53.217
0.3974023 	 6.4900162 	 348.8483 	 1.065 	 53.201
0.4035113 	 6.7262618 	 359.5935 	 1.068 	 53.220
0.4094577 	 6.9597674 	 366.9889 	 1.069 	 53.165
0.4152498 	 7.2034925 	 375.0252 	 1.071 	 53.174
0.4208995 	 7.4487815 	 384.6427 	 1.073 	 53.150
0.4264114 	 7.6993217 	 393.1733 	 1.075 	 53.138
0.4317868 	 7.9518904 	 404.9410 	 1.075 	 53.124
0.4370334 	 8.2107999 	 416.1491 	 1.075 	 53.138
0.4421530 	 8.4697871 	 424.6526 	 1.077 	 53.097
0.4471539 	 8.7359397 	 439.6503 	 1.078 	 53.101
0.4520363 	 9.0069834 	 447.6966 	 1.079 	 53.093
0.4568081 	 9.2757616 	 456.9777 	 1.080 	 53.080
0.4614733 	 9.5488625 	 466.0997 	 1.081 	 53.042
0.4660375 	 9.8321580 	 474.6120 	 1.082 	 53.043
0.4704983 	 10.1142902 	 484.2797 	 1.083 	 53.012
0.4748660 	 10.4037419 	 494.4892 	 1.084 	 53.020
0.4791370 	 10.6934685 	 508.0094 	 1.085 	 53.015
0.4833191 	 10.9875705 	 519.6281 	 1.087 	 52.996
0.4874110 	 11.2848260 	 527.6104 	 1.089 	 52.984
0.4914211 	 11.5886257 	 543.5458 	 1.089 	 52.973
0.4953484 	 11.8980200 	 552.4427 	 1.090 	 52.978
0.4991963 	 12.2020685 	 567.1615 	 1.089 	 52.969
0.5029668 	 12.5189815 	 575.2096 	 1.089 	 52.954
0.5066639 	 12.8318594 	 588.9575 	 1.090 	 52.929
0.5102895 	 13.1592989 	 601.0110 	 1.091 	 52.953
0.5138439 	 13.4818009 	 614.5011 	 1.092 	 52.916
0.5173309 	 13.8094839 	 627.7943 	 1.091 	 52.910
0.5207515 	 14.1380953 	 638.6528 	 1.093 	 52.869
0.5241075 	 14.4754604 	 649.2321 	 1.093 	 52.885
0.5273992 	 14.8181703 	 666.3092 	 1.092 	 52.879
0.5306346 	 15.1625667 	 679.4652 	 1.091 	 52.892
0.5338090 	 15.5126362 	 699.3427 	 1.091 	 52.869
0.5369267 	 15.8593781 	 721.5052 	 1.092 	 52.862
0.5399870 	 16.2174375 	 736.7463 	 1.089 	 52.848
0.5429956 	 16.5778480 	 761.8150 	 1.089 	 52.862
0.5459497 	 16.9511896 	 788.4719 	 1.088 	 52.853
0.5488521 	 17.3210910 	 816.9873 	 1.088 	 52.831
0.5517015 	 17.6893713 	 865.9591 	 1.086 	 52.822
0.5545026 	 18.0707285 	 930.6057 	 1.085 	 52.804
0.5572557 	 18.4465615 	 1020.1603 	 1.083 	 52.813
0.5599613 	 18.8314863 	 1153.1309 	 1.082 	 52.800
0.5626212 	 19.2250503 	 1369.6923 	 1.081 	 52.797
0.5652392 	 19.6210281 	 1733.9876 	 1.080 	 52.771
0.5678135 	 20.0261625 	 2366.1796 	 1.079 	 52.787
0.5703454 	 20.4308631 	 3444.4663 	 1.077 	 52.817
0.5728347 	 20.8391555 	 5112.1605 	 1.077 	 52.797
0.5752818 	 21.2699605 	 8013.4675 	 1.077 	 52.790
0.5776883 	 21.7124021 	 12639.0414 	 1.077 	 52.800
0.5800537 	 22.1633448 	 19751.7316 	 1.079 	 52.835
0.5823762 	 22.6103697 	 30141.6166 	 1.080 	 52.819
0.5846585 	 23.1067210 	 44828.5210 	 1.084 	 52.851
0.5868990 	 23.6110487 	 64626.6901 	 1.088 	 52.843
0.5890938 	 24.1619454 	 87710.0491 	 1.091 	 52.879
0.5912465 	 24.7450858 	 115409.0729 	 1.095 	 52.894
0.5933527 	 25.3495799 	 145567.9952 	 1.098 	 52.914
0.5954126 	 25.9994701 	 178321.9220 	 1.103 	 52.932
0.5974239 	 26.6939028 	 209605.7204 	 1.107 	 52.963
0.5993866 	 27.4368184 	 237835.9793 	 1.110 	 52.980
0.6013016 	 28.2040036 	 263460.6287 	 1.115 	 52.994
0.6031659 	 29.0204248 	 284645.2963 	 1.120 	 52.986
0.6049827 	 29.8597220 	 302634.5269 	 1.125 	 52.981
0.6067508 	 30.7446196 	 316972.1749 	 1.129 	 52.985
0.6084701 	 31.6647290 	 330827.4110 	 1.133 	 52.966
0.6101422 	 32.6198989 	 339834.4139 	 1.138 	 52.949
0.6117683 	 33.6207080 	 349450.3199 	 1.144 	 52.951
0.6133492 	 34.6527580 	 360257.4409 	 1.150 	 52.926
0.6148839 	 35.7086884 	 371314.1371 	 1.158 	 52.906
0.6163766 	 36.8279722 	 385299.9569 	 1.165 	 52.881
0.6178277 	 37.9569122 	 403989.7533 	 1.172 	 52.832
0.6192364 	 39.1538201 	 427849.6574 	 1.181 	 52.805
0.6206046 	 40.3673931 	 456745.8248 	 1.187 	 52.793
0.6219326 	 41.6455547 	 488591.7186 	 1.196 	 52.734
0.6232224 	 42.9319225 	 524640.8853 	 1.206 	 52.682
0.6244740 	 44.3005934 	 560152.0989 	 1.213 	 52.669
0.6256900 	 45.7168147 	 595290.5262 	 1.221 	 52.630
0.6268684 	 47.1532906 	 627732.5689 	 1.228 	 52.584
0.6280116 	 48.6765437 	 651936.3804 	 1.235 	 52.545
0.6291211 	 50.2253384 	 665120.5097 	 1.240 	 52.508
