N=60 	 R=1000000 	 s=1 	 Save [density, Z, rho_t, like/unlike, events per sweep]
0.0002271 	 1.0008533 	 1.1027 	 0.991 	 7.112
0.0220576 	 1.1831693 	 12.0752 	 0.960 	 35.127
0.0428526 	 1.2259748 	 22.4943 	 0.998 	 47.972
0.0625834 	 1.3034832 	 33.0756 	 1.005 	 51.559
0.0812824 	 1.3961061 	 43.3830 	 1.008 	 52.661
0.0990749 	 1.4965690 	 53.8790 	 1.009 	 53.136
0.1160296 	 1.6043611 	 64.3622 	 1.010 	 53.358
0.1322000 	 1.7180951 	 74.1725 	 1.014 	 53.448
0.1476461 	 1.8361291 	 84.5203 	 1.014 	 53.567
0.1624044 	 1.9620906 	 94.5333 	 1.016 	 53.578
0.1765291 	 2.0920515 	 104.9044 	 1.019 	 53.551
0.1900496 	 2.2261954 	 115.0269 	 1.021 	 53.512
0.2030217 	 2.3653215 	 125.2895 	 1.023 	 53.510
0.2154846 	 2.5088716 	 135.5385 	 1.025 	 53.502
0.2274472 	 2.6561814 	 146.1397 	 1.027 	 53.457
0.2389588 	 2.8084752 	 156.6691 	 1.030 	 53.457
0.2500443 	 2.9655126 	 167.3382 	 1.031 	 53.454
0.2607263 	 3.1266599 	 177.4569 	 1.033 	 53.439
0.2710150 	 3.2907211 	 186.9747 	 1.035 	 53.424
0.2809501 	 3.4605102 	 197.8664 	 1.036 	 53.402
0.2905400 	 3.6321931 	 207.5896 	 1.038 	 53.383
0.2998193 	 3.8118831 	 216.6608 	 1.041 	 53.401
0.3087891 	 3.9921789 	 228.7553 	 1.043 	 53.364
0.3174645 	 4.1782727 	 237.8316 	 1.045 	 53.329
0.3258685 	 4.3696968 	 248.3324 	 1.046 	 53.353
0.3340123 	 4.5635923 	 257.7606 	 1.049 	 53.333
0.3419091 	 4.7606046 	 269.0538 	 1.050 	 53.320
0.3495623 	 4.9628713 	 281.8661 	 1.052 	 53.301
0.3569993 	 5.1699380 	 292.9167 	 1.054 	 53.300
0.3642141 	 5.3793376 	 304.9284 	 1.057 	 53.281
0.3712260 	 5.5952385 	 313.2648 	 1.058 	 53.276
0.3780413 	 5.8124084 	 323.5379 	 1.060 	 53.253
0.3846650 	 6.0338247 	 334.2818 	 1.062 	 53.235
0.3911128 	 6.2608937 	 343.0881 	 1.063 	 53.235
0.3973875 	 6.4914833 	 352.1070 	 1.065 	 53.222
0.4034932 	 6.7238953 	 361.6780 	 1.066 	 53.192
0.4094422 	 6.9613811 	 373.7775 	 1.068 	 53.172
0.4152426 	 7.2018965 	 386.0310 	 1.070 	 53.167
0.4208952 	 7.4487075 	 393.7636 	 1.072 	 53.152
0.4264055 	 7.6964256 	 401.9375 	 1.073 	 53.139
0.4317835 	 7.9503715 	 413.8320 	 1.075 	 53.135
0.4370307 	 8.2081999 	 422.8268 	 1.075 	 53.107
0.4421497 	 8.4691405 	 431.4994 	 1.077 	 53.097
0.4471510 	 8.7371596 	 442.1997 	 1.079 	 53.084
0.4520307 	 9.0028079 	 452.2201 	 1.080 	 53.073
0.4568064 	 9.2742446 	 463.1765 	 1.081 	 53.048
0.4614742 	 9.5511577 	 475.7317 	 1.082 	 53.048
0.4660367 	 9.8323886 	 485.5868 	 1.082 	 53.071
0.4704988 	 10.1131822 	 495.2352 	 1.083 	 53.033
0.4748663 	 10.3979388 	 505.2791 	 1.084 	 52.993
0.4791346 	 10.6914974 	 514.7423 	 1.085 	 53.007
0.4833170 	 10.9837920 	 524.7394 	 1.087 	 53.004
0.4874126 	 11.2821377 	 535.7267 	 1.087 	 52.976
0.4914238 	 11.5844282 	 541.9356 	 1.089 	 52.977
0.4953550 	 11.8942293 	 553.4469 	 1.090 	 52.980
0.4992006 	 12.2049015 	 562.4991 	 1.090 	 52.961
0.5029722 	 12.5183578 	 573.9105 	 1.091 	 52.955
0.5066691 	 12.8356786 	 585.1860 	 1.091 	 52.946
0.5102930 	 13.1624050 	 596.6548 	 1.092 	 52.960
0.5138454 	 13.4811709 	 608.3211 	 1.092 	 52.919
0.5173313 	 13.8041592 	 620.9615 	 1.092 	 52.902
0.5207500 	 14.1453314 	 629.3607 	 1.092 	 52.923
0.5241054 	 14.4757751 	 638.7373 	 1.093 	 52.887
0.5273979 	 14.8223953 	 649.9659 	 1.093 	 52.888
0.5306311 	 15.1638130 	 659.3983 	 1.093 	 52.873
0.5338032 	 15.5138760 	 677.1235 	 1.093 	 52.876
0.5369185 	 15.8597422 	 698.8331 	 1.093 	 52.840
0.5399801 	 16.2041296 	 719.5422 	 1.091 	 52.832
0.5429863 	 16.5716758 	 740.4236 	 1.091 	 52.833
0.5459413 	 16.9370314 	 773.0870 	 1.089 	 52.827
0.5488433 	 17.3092476 	 810.3414 	 1.090 	 52.824
0.5516971 	 17.6764506 	 868.4311 	 1.088 	 52.810
0.5545018 	 18.0524089 	 964.3160 	 1.087 	 52.815
0.5572558 	 18.4333505 	 1121.4557 	 1.084 	 52.814
0.5599672 	 18.8099987 	 1393.0067 	 1.084 	 52.803
0.5626328 	 19.1918873 	 1963.3955 	 1.081 	 52.804
0.5652546 	 19.5751199 	 3051.0759 	 1.079 	 52.789
0.5678347 	 19.9673339 	 5029.2961 	 1.075 	 52.799
0.5703750 	 20.3630986 	 8389.6889 	 1.072 	 52.795
0.5728739 	 20.7734607 	 13811.8853 	 1.069 	 52.829
0.5753308 	 21.1634207 	 22379.5104 	 1.064 	 52.781
0.5777507 	 21.6038233 	 34180.2109 	 1.061 	 52.828
0.5801283 	 22.0718481 	 48497.2205 	 1.061 	 52.819
0.5824597 	 22.5545640 	 64194.8909 	 1.058 	 52.839
0.5847500 	 23.0797405 	 79770.7642 	 1.058 	 52.835
0.5869908 	 23.6309374 	 93825.6315 	 1.061 	 52.817
0.5891848 	 24.2316373 	 107069.9740 	 1.064 	 52.842
0.5913277 	 24.8494285 	 119726.7172 	 1.069 	 52.819
0.5934224 	 25.5212864 	 131983.7030 	 1.075 	 52.838
0.5954678 	 26.1982179 	 146977.0395 	 1.082 	 52.804
0.5974642 	 26.9107268 	 166773.4934 	 1.092 	 52.829
0.5994114 	 27.6432867 	 190587.6466 	 1.100 	 52.814
0.6013110 	 28.4098955 	 219082.5713 	 1.110 	 52.790
0.6031630 	 29.2112534 	 255274.5270 	 1.118 	 52.802
0.6049684 	 30.0311442 	 293261.3202 	 1.125 	 52.801
0.6067267 	 30.9022970 	 332004.7652 	 1.133 	 52.794
0.6084393 	 31.8140140 	 370255.9004 	 1.137 	 52.835
0.6101047 	 32.7536465 	 406360.3483 	 1.142 	 52.832
0.6117252 	 33.7417204 	 440005.7420 	 1.144 	 52.833
0.6133019 	 34.7548072 	 470198.1532 	 1.146 	 52.830
0.6148327 	 35.8376452 	 494018.8752 	 1.146 	 52.843
0.6163202 	 36.9566990 	 514613.0283 	 1.146 	 52.871
0.6177646 	 38.0823955 	 532657.5574 	 1.145 	 52.877
0.6191674 	 39.2865960 	 547494.4209 	 1.143 	 52.885
0.6205293 	 40.4989303 	 558918.3767 	 1.142 	 52.886
0.6218516 	 41.7875657 	 569393.8893 	 1.139 	 52.913
0.6231356 	 43.1049424 	 576750.1335 	 1.135 	 52.917
0.6243824 	 44.4550017 	 580092.1405 	 1.132 	 52.940
0.6255931 	 45.8454416 	 577039.2497 	 1.129 	 52.923
0.6267685 	 47.2994823 	 574350.8825 	 1.126 	 52.921
0.6279086 	 48.7797057 	 566117.3803 	 1.121 	 52.925
0.6290155 	 50.3372027 	 553910.2374 	 1.120 	 52.931
