N=60 	 R=1000000 	 s=1 	 Save [density, Z, rho_t, like/unlike, events per sweep]
0.0002259 	 1.0008515 	 1.1026 	 0.996 	 7.112
0.0220700 	 1.1831509 	 12.0399 	 0.961 	 35.158
0.0428618 	 1.2260334 	 22.6066 	 0.998 	 47.978
0.0625898 	 1.3034588 	 33.1747 	 1.006 	 51.547
0.0813100 	 1.3961768 	 43.6401 	 1.008 	 52.650
0.0991120 	 1.4968791 	 54.2017 	 1.010 	 53.133
0.1160820 	 1.6045157 	 64.5540 	 1.012 	 53.356
0.1322577 	 1.7186101 	 75.2702 	 1.013 	 53.458
0.1477046 	 1.8367880 	 85.4154 	 1.014 	 53.620
0.1624692 	 1.9624339 	 96.2564 	 1.016 	 53.568
0.1765939 	 2.0927397 	 107.3710 	 1.019 	 53.549
0.1901248 	 2.2269211 	 117.1957 	 1.021 	 53.521
0.2031050 	 2.3659219 	 128.0042 	 1.024 	 53.500
0.2155568 	 2.5100986 	 137.9846 	 1.025 	 53.501
0.2275211 	 2.6573125 	 149.3142 	 1.028 	 53.470
0.2390304 	 2.8095266 	 159.0965 	 1.029 	 53.451
0.2501112 	 2.9660926 	 168.5047 	 1.031 	 53.441
0.2607862 	 3.1274500 	 179.1061 	 1.033 	 53.442
0.2710758 	 3.2921429 	 188.7238 	 1.035 	 53.417
0.2810155 	 3.4613883 	 199.6720 	 1.037 	 53.425
0.2906023 	 3.6344085 	 207.6860 	 1.038 	 53.377
0.2998678 	 3.8119387 	 218.3114 	 1.041 	 53.388
0.3088402 	 3.9940781 	 229.7173 	 1.043 	 53.369
0.3175170 	 4.1814765 	 239.7959 	 1.045 	 53.368
0.3259168 	 4.3698481 	 250.4399 	 1.046 	 53.334
0.3340648 	 4.5644316 	 259.9763 	 1.049 	 53.317
0.3419544 	 4.7628560 	 269.7180 	 1.050 	 53.300
0.3496071 	 4.9643659 	 277.8607 	 1.052 	 53.272
0.3570340 	 5.1696704 	 287.9697 	 1.053 	 53.290
0.3642511 	 5.3798825 	 298.0834 	 1.055 	 53.272
0.3712661 	 5.5934255 	 308.8157 	 1.059 	 53.258
0.3780758 	 5.8136347 	 319.6050 	 1.060 	 53.241
0.3847014 	 6.0351105 	 330.5271 	 1.062 	 53.227
0.3911496 	 6.2613516 	 342.3761 	 1.064 	 53.227
0.3974212 	 6.4927973 	 352.4620 	 1.065 	 53.220
0.4035280 	 6.7251640 	 362.6166 	 1.066 	 53.195
0.4094744 	 6.9614807 	 374.5339 	 1.068 	 53.168
0.4152705 	 7.2037942 	 388.1332 	 1.070 	 53.149
0.4209203 	 7.4502682 	 398.2656 	 1.072 	 53.142
0.4264325 	 7.7020773 	 407.0099 	 1.073 	 53.158
0.4318068 	 7.9515033 	 418.2618 	 1.074 	 53.127
0.4370534 	 8.2102433 	 431.5600 	 1.076 	 53.094
0.4421753 	 8.4714736 	 438.9819 	 1.077 	 53.103
0.4471745 	 8.7357058 	 446.2102 	 1.078 	 53.081
0.4520607 	 9.0060152 	 458.9496 	 1.080 	 53.089
0.4568336 	 9.2772393 	 469.8429 	 1.081 	 53.055
0.4614966 	 9.5480363 	 483.1016 	 1.082 	 53.013
0.4660562 	 9.8325440 	 491.4107 	 1.083 	 53.030
0.4705202 	 10.1182596 	 499.0478 	 1.084 	 53.042
0.4748867 	 10.4014112 	 511.1247 	 1.085 	 53.030
0.4791610 	 10.6922124 	 525.0484 	 1.086 	 53.008
0.4833402 	 10.9870714 	 537.4380 	 1.087 	 52.968
0.4874326 	 11.2882497 	 544.7953 	 1.087 	 52.979
0.4914374 	 11.5861252 	 551.9427 	 1.088 	 52.964
0.4953632 	 11.8959938 	 564.4777 	 1.089 	 52.957
0.4992111 	 12.2058761 	 575.6549 	 1.090 	 52.955
0.5029841 	 12.5128830 	 586.9332 	 1.090 	 52.919
0.5066804 	 12.8303268 	 595.6058 	 1.089 	 52.919
0.5103091 	 13.1560794 	 611.8949 	 1.091 	 52.924
0.5138645 	 13.4787784 	 624.0467 	 1.090 	 52.910
0.5173503 	 13.8030758 	 636.5499 	 1.091 	 52.911
0.5207687 	 14.1385937 	 649.1209 	 1.090 	 52.882
0.5241242 	 14.4781887 	 659.2391 	 1.091 	 52.890
0.5274194 	 14.8196792 	 677.6387 	 1.091 	 52.868
0.5306523 	 15.1650097 	 693.5747 	 1.091 	 52.871
0.5338275 	 15.5102063 	 713.9304 	 1.090 	 52.851
0.5369428 	 15.8713141 	 732.7767 	 1.090 	 52.863
0.5400033 	 16.2244112 	 756.7504 	 1.089 	 52.857
0.5430087 	 16.5783522 	 783.3393 	 1.090 	 52.838
0.5459588 	 16.9426642 	 826.9753 	 1.089 	 52.816
0.5488594 	 17.3273828 	 879.8460 	 1.089 	 52.841
0.5517097 	 17.6860148 	 973.5014 	 1.088 	 52.841
0.5545133 	 18.0590270 	 1122.7819 	 1.086 	 52.831
0.5572696 	 18.4324560 	 1389.7443 	 1.085 	 52.816
0.5599812 	 18.8111447 	 1854.6252 	 1.085 	 52.802
0.5626450 	 19.2057845 	 2675.7671 	 1.084 	 52.786
0.5652649 	 19.6044009 	 4139.3080 	 1.082 	 52.791
0.5678438 	 20.0005485 	 6684.4523 	 1.081 	 52.791
0.5703761 	 20.4202968 	 10575.2248 	 1.079 	 52.783
0.5728668 	 20.8412550 	 16904.3542 	 1.077 	 52.782
0.5753153 	 21.2662527 	 26062.8354 	 1.077 	 52.765
0.5777182 	 21.7386202 	 37129.5046 	 1.075 	 52.752
0.5800775 	 22.2173334 	 51235.1394 	 1.076 	 52.749
0.5823920 	 22.7270657 	 67291.1841 	 1.076 	 52.728
0.5846621 	 23.2441262 	 85331.8280 	 1.075 	 52.716
0.5868874 	 23.7911870 	 102121.1360 	 1.074 	 52.717
0.5890671 	 24.3493286 	 118900.0572 	 1.073 	 52.728
0.5912007 	 24.9330153 	 132022.6706 	 1.074 	 52.721
0.5932918 	 25.5287655 	 142244.2870 	 1.072 	 52.721
0.5953392 	 26.1433309 	 149234.2169 	 1.070 	 52.699
0.5973393 	 26.8006640 	 153962.2153 	 1.069 	 52.743
0.5992970 	 27.4672365 	 154674.1505 	 1.065 	 52.729
0.6012099 	 28.1560412 	 154048.0533 	 1.062 	 52.729
0.6030806 	 28.8802068 	 157035.2060 	 1.056 	 52.733
0.6049095 	 29.6268905 	 160281.3897 	 1.051 	 52.734
0.6066954 	 30.3988851 	 166291.8646 	 1.044 	 52.725
0.6084369 	 31.2012594 	 177530.7227 	 1.035 	 52.746
0.6101371 	 32.0407167 	 196975.0374 	 1.025 	 52.761
0.6117958 	 32.8904110 	 227308.4617 	 1.013 	 52.763
0.6134149 	 33.7903626 	 263849.1007 	 1.002 	 52.777
0.6149937 	 34.6958419 	 312268.3236 	 0.990 	 52.781
0.6165339 	 35.6491094 	 372606.1184 	 0.977 	 52.789
0.6180358 	 36.6619482 	 433727.1038 	 0.966 	 52.813
0.6194983 	 37.7085189 	 491729.1469 	 0.957 	 52.800
0.6209224 	 38.8315128 	 547516.5251 	 0.948 	 52.815
0.6223070 	 40.0042785 	 598869.9757 	 0.940 	 52.829
0.6236516 	 41.2294171 	 637498.9018 	 0.935 	 52.813
0.6249573 	 42.5215470 	 669024.7269 	 0.931 	 52.808
0.6262257 	 43.8522519 	 695737.8343 	 0.927 	 52.779
0.6274551 	 45.2498070 	 716172.8149 	 0.925 	 52.804
0.6286486 	 46.7249168 	 734343.1369 	 0.923 	 52.773
0.6298061 	 48.2201106 	 752903.7761 	 0.919 	 52.778
