N=60 	 R=1000000 	 s=1 	 Save [density, Z, rho_t, like/unlike, events per sweep]
0.0002253 	 1.0008502 	 1.1028 	 0.994 	 7.112
0.0220659 	 1.1832964 	 12.0217 	 0.960 	 35.136
0.0428676 	 1.2260110 	 22.5448 	 0.998 	 47.986
0.0625850 	 1.3034726 	 33.2458 	 1.006 	 51.558
0.0812930 	 1.3961328 	 43.7880 	 1.008 	 52.652
0.0991017 	 1.4968220 	 54.1987 	 1.010 	 53.128
0.1160580 	 1.6042155 	 64.9989 	 1.011 	 53.345
0.1322355 	 1.7185865 	 75.0151 	 1.013 	 53.479
0.1476712 	 1.8364026 	 85.1217 	 1.014 	 53.590
0.1624373 	 1.9621556 	 94.6722 	 1.017 	 53.578
0.1765538 	 2.0920108 	 104.8395 	 1.018 	 53.544
0.1900801 	 2.2269189 	 114.6326 	 1.022 	 53.521
0.2030500 	 2.3654141 	 125.4317 	 1.023 	 53.509
0.2155038 	 2.5088049 	 137.0771 	 1.025 	 53.488
0.2274719 	 2.6570719 	 147.6728 	 1.028 	 53.487
0.2389836 	 2.8092295 	 157.9953 	 1.029 	 53.471
0.2500581 	 2.9658219 	 168.5415 	 1.031 	 53.472
0.2607372 	 3.1262144 	 178.8012 	 1.033 	 53.434
0.2710289 	 3.2912776 	 189.6475 	 1.035 	 53.412
0.2809594 	 3.4601298 	 198.8004 	 1.037 	 53.404
0.2905537 	 3.6345029 	 210.2887 	 1.037 	 53.401
0.2998233 	 3.8115390 	 221.1948 	 1.041 	 53.400
0.3087886 	 3.9923956 	 233.3326 	 1.043 	 53.368
0.3174665 	 4.1779749 	 245.6800 	 1.044 	 53.358
0.3258659 	 4.3687343 	 257.1722 	 1.047 	 53.333
0.3340035 	 4.5625587 	 266.1484 	 1.048 	 53.324
0.3418948 	 4.7599363 	 275.7376 	 1.050 	 53.311
0.3495503 	 4.9620522 	 285.6559 	 1.052 	 53.309
0.3569813 	 5.1690650 	 295.8605 	 1.055 	 53.300
0.3641965 	 5.3787563 	 305.7535 	 1.056 	 53.275
0.3711982 	 5.5919160 	 315.3521 	 1.058 	 53.257
0.3780112 	 5.8121582 	 325.4602 	 1.060 	 53.253
0.3846372 	 6.0319600 	 333.2089 	 1.061 	 53.226
0.3910848 	 6.2603389 	 342.9054 	 1.064 	 53.234
0.3973515 	 6.4887395 	 350.4354 	 1.065 	 53.223
0.4034600 	 6.7233832 	 359.6158 	 1.067 	 53.204
0.4094114 	 6.9619915 	 368.5528 	 1.069 	 53.194
0.4152108 	 7.2015892 	 376.9688 	 1.070 	 53.152
0.4208605 	 7.4470221 	 385.4624 	 1.072 	 53.145
0.4263716 	 7.6960704 	 398.9070 	 1.073 	 53.146
0.4317504 	 7.9485103 	 407.5253 	 1.075 	 53.135
0.4369973 	 8.2080231 	 417.4573 	 1.076 	 53.095
0.4421213 	 8.4681346 	 428.6249 	 1.077 	 53.108
0.4471233 	 8.7370790 	 436.4676 	 1.079 	 53.104
0.4520101 	 9.0020984 	 448.1484 	 1.080 	 53.072
0.4567855 	 9.2747621 	 456.1530 	 1.081 	 53.057
0.4614480 	 9.5477573 	 464.7051 	 1.082 	 53.052
0.4660120 	 9.8282463 	 475.6568 	 1.084 	 53.037
0.4704781 	 10.1105414 	 487.1150 	 1.083 	 53.033
0.4748462 	 10.3982702 	 497.1479 	 1.084 	 53.019
0.4791215 	 10.6866650 	 512.6965 	 1.085 	 52.991
0.4833044 	 10.9855063 	 523.0180 	 1.086 	 52.996
0.4874020 	 11.2831458 	 531.2359 	 1.087 	 53.003
0.4914113 	 11.5826539 	 541.6962 	 1.088 	 52.970
0.4953420 	 11.8900731 	 555.2630 	 1.088 	 52.957
0.4991916 	 12.2051619 	 566.5160 	 1.088 	 52.964
0.5029620 	 12.5182552 	 578.7182 	 1.090 	 52.931
0.5066579 	 12.8378817 	 587.6272 	 1.090 	 52.939
0.5102805 	 13.1605463 	 604.2900 	 1.091 	 52.928
0.5138344 	 13.4780623 	 615.9763 	 1.091 	 52.904
0.5173228 	 13.8103361 	 629.6286 	 1.091 	 52.930
0.5207440 	 14.1397485 	 641.8776 	 1.090 	 52.895
0.5241024 	 14.4796013 	 655.7763 	 1.092 	 52.868
0.5273929 	 14.8227499 	 669.9117 	 1.091 	 52.878
0.5306265 	 15.1634735 	 687.5421 	 1.091 	 52.875
0.5337990 	 15.5105504 	 705.4826 	 1.091 	 52.863
0.5369146 	 15.8635851 	 720.3824 	 1.091 	 52.864
0.5399728 	 16.2224122 	 740.1575 	 1.090 	 52.841
0.5429761 	 16.5920433 	 767.9452 	 1.091 	 52.853
0.5459267 	 16.9623057 	 798.5227 	 1.089 	 52.854
0.5488257 	 17.3229279 	 835.7772 	 1.088 	 52.812
0.5516775 	 17.6944425 	 878.3802 	 1.087 	 52.835
0.5544763 	 18.0820935 	 940.4653 	 1.087 	 52.818
0.5572275 	 18.4701230 	 1038.5511 	 1.086 	 52.841
0.5599332 	 18.8561522 	 1159.7452 	 1.085 	 52.785
0.5625908 	 19.2480166 	 1328.3242 	 1.085 	 52.784
0.5652029 	 19.6566453 	 1587.3639 	 1.086 	 52.793
0.5677700 	 20.0707207 	 1927.2282 	 1.086 	 52.812
0.5702918 	 20.4920308 	 2403.2645 	 1.085 	 52.777
0.5727683 	 20.9354381 	 3060.8951 	 1.086 	 52.783
0.5752029 	 21.3901006 	 3999.0116 	 1.087 	 52.791
0.5775935 	 21.8458053 	 5327.8688 	 1.090 	 52.775
0.5799396 	 22.3331047 	 7162.4689 	 1.094 	 52.792
0.5822426 	 22.8272349 	 9481.4053 	 1.096 	 52.760
0.5845025 	 23.3412309 	 12613.8075 	 1.101 	 52.772
0.5867153 	 23.8907264 	 16596.2074 	 1.106 	 52.776
0.5888848 	 24.4515984 	 21466.6307 	 1.113 	 52.787
0.5910093 	 25.0440927 	 27783.3559 	 1.119 	 52.768
0.5930894 	 25.6418780 	 35826.6308 	 1.124 	 52.773
0.5951227 	 26.2838599 	 44924.5416 	 1.131 	 52.775
0.5971105 	 26.9576041 	 55616.6323 	 1.135 	 52.757
0.5990531 	 27.6632936 	 67735.2690 	 1.140 	 52.763
0.6009498 	 28.4121436 	 80996.6422 	 1.145 	 52.793
0.6028019 	 29.1668200 	 95249.0144 	 1.150 	 52.801
0.6046082 	 29.9730028 	 108552.5123 	 1.152 	 52.816
0.6063705 	 30.7923890 	 123793.8821 	 1.155 	 52.801
0.6080902 	 31.6334535 	 138772.6692 	 1.158 	 52.800
0.6097656 	 32.5199103 	 156051.1851 	 1.162 	 52.772
0.6113974 	 33.4222353 	 175789.6243 	 1.168 	 52.764
0.6129890 	 34.3643478 	 201073.9907 	 1.174 	 52.692
0.6145391 	 35.3406176 	 232242.0066 	 1.183 	 52.671
0.6160489 	 36.3508107 	 271713.3226 	 1.191 	 52.609
0.6175196 	 37.3908978 	 318021.6165 	 1.201 	 52.539
0.6189513 	 38.4954986 	 375147.1329 	 1.213 	 52.487
0.6203445 	 39.6412012 	 436026.0162 	 1.227 	 52.405
0.6216972 	 40.8507786 	 494480.9330 	 1.237 	 52.338
0.6230115 	 42.1255119 	 548320.6934 	 1.247 	 52.265
0.6242863 	 43.4600621 	 596951.6618 	 1.257 	 52.212
0.6255249 	 44.8471910 	 631049.6388 	 1.265 	 52.155
0.6267251 	 46.3080820 	 654611.2527 	 1.270 	 52.125
0.6278898 	 47.7848436 	 665264.5730 	 1.274 	 52.061
0.6290195 	 49.3390236 	 653525.7262 	 1.270 	 52.070
