N=60 	 R=1000000 	 s=1 	 Save [density, Z, rho_t, like/unlike, events per sweep]
0.0002255 	 1.0008578 	 1.1026 	 0.997 	 7.113
0.0220676 	 1.1831157 	 12.0306 	 0.960 	 35.174
0.0428576 	 1.2259415 	 22.5381 	 0.998 	 47.960
0.0625884 	 1.3035326 	 32.8579 	 1.007 	 51.573
0.0813016 	 1.3959647 	 43.2449 	 1.008 	 52.645
0.0990914 	 1.4966657 	 53.5887 	 1.009 	 53.144
0.1160501 	 1.6044653 	 63.9032 	 1.011 	 53.359
0.1322295 	 1.7182431 	 74.4746 	 1.013 	 53.450
0.1476710 	 1.8366360 	 85.2100 	 1.014 	 53.607
0.1624329 	 1.9621613 	 95.4517 	 1.017 	 53.576
0.1765551 	 2.0924087 	 106.2956 	 1.018 	 53.552
0.1900693 	 2.2264313 	 116.8476 	 1.021 	 53.530
0.2030443 	 2.3658216 	 127.0364 	 1.023 	 53.529
0.2155009 	 2.5091464 	 137.9524 	 1.026 	 53.506
0.2274725 	 2.6569070 	 149.8770 	 1.028 	 53.485
0.2389835 	 2.8089603 	 159.6980 	 1.029 	 53.458
0.2500605 	 2.9652240 	 169.6611 	 1.030 	 53.426
0.2607350 	 3.1264427 	 180.1340 	 1.033 	 53.428
0.2710299 	 3.2914033 	 190.2661 	 1.034 	 53.413
0.2809706 	 3.4610420 	 200.6269 	 1.037 	 53.437
0.2905664 	 3.6342542 	 209.6733 	 1.039 	 53.387
0.2998399 	 3.8112105 	 220.6097 	 1.040 	 53.386
0.3088044 	 3.9928624 	 231.1423 	 1.043 	 53.355
0.3174779 	 4.1792106 	 241.2940 	 1.045 	 53.346
0.3258773 	 4.3686291 	 251.8016 	 1.047 	 53.324
0.3340169 	 4.5626561 	 261.0497 	 1.048 	 53.311
0.3419055 	 4.7611955 	 271.7044 	 1.051 	 53.347
0.3495610 	 4.9616413 	 282.9796 	 1.052 	 53.287
0.3569934 	 5.1696133 	 291.9571 	 1.054 	 53.279
0.3642084 	 5.3774261 	 301.1563 	 1.055 	 53.263
0.3712124 	 5.5933759 	 309.1813 	 1.057 	 53.246
0.3780228 	 5.8106565 	 320.7142 	 1.060 	 53.235
0.3846498 	 6.0327545 	 330.3969 	 1.062 	 53.231
0.3910957 	 6.2591459 	 342.3739 	 1.063 	 53.218
0.3973671 	 6.4876883 	 353.3213 	 1.065 	 53.202
0.4034758 	 6.7223983 	 364.0787 	 1.066 	 53.191
0.4094230 	 6.9622095 	 374.4288 	 1.069 	 53.187
0.4152212 	 7.2019130 	 384.0022 	 1.070 	 53.169
0.4208690 	 7.4499090 	 395.3623 	 1.072 	 53.150
0.4263809 	 7.6988227 	 408.6224 	 1.073 	 53.150
0.4317566 	 7.9509914 	 419.3442 	 1.075 	 53.143
0.4370070 	 8.2091567 	 427.6238 	 1.076 	 53.115
0.4421270 	 8.4704886 	 442.5488 	 1.078 	 53.095
0.4471276 	 8.7340252 	 453.3718 	 1.079 	 53.078
0.4520095 	 9.0018818 	 469.4394 	 1.079 	 53.070
0.4567812 	 9.2711447 	 480.7505 	 1.080 	 53.059
0.4614481 	 9.5495348 	 488.9139 	 1.082 	 53.051
0.4660147 	 9.8319993 	 503.7133 	 1.083 	 53.048
0.4704801 	 10.1128390 	 515.7178 	 1.084 	 53.032
0.4748437 	 10.3973534 	 525.7188 	 1.085 	 53.010
0.4791192 	 10.6917428 	 530.0237 	 1.086 	 53.015
0.4833037 	 10.9882626 	 539.4444 	 1.087 	 53.002
0.4873953 	 11.2839279 	 551.9828 	 1.087 	 52.987
0.4914070 	 11.5861442 	 560.9104 	 1.087 	 52.970
0.4953376 	 11.8909265 	 567.6474 	 1.087 	 52.967
0.4991889 	 12.2032521 	 578.1289 	 1.088 	 52.956
0.5029613 	 12.5129760 	 588.7527 	 1.089 	 52.951
0.5066575 	 12.8253396 	 602.5142 	 1.088 	 52.930
0.5102831 	 13.1564917 	 611.5948 	 1.088 	 52.933
0.5138362 	 13.4824739 	 625.0517 	 1.089 	 52.930
0.5173204 	 13.8040119 	 635.2478 	 1.089 	 52.897
0.5207376 	 14.1473289 	 645.3840 	 1.090 	 52.917
0.5240921 	 14.4773115 	 657.1966 	 1.090 	 52.884
0.5273837 	 14.8200965 	 670.8436 	 1.092 	 52.886
0.5306154 	 15.1620612 	 686.3969 	 1.092 	 52.859
0.5337901 	 15.5098802 	 704.2245 	 1.090 	 52.853
0.5369061 	 15.8647339 	 723.9677 	 1.090 	 52.859
0.5399669 	 16.2212530 	 748.0337 	 1.092 	 52.828
0.5429733 	 16.5909149 	 768.8077 	 1.091 	 52.837
0.5459241 	 16.9454485 	 791.3211 	 1.090 	 52.816
0.5488261 	 17.3206049 	 823.9978 	 1.090 	 52.814
0.5516760 	 17.6960796 	 870.7363 	 1.090 	 52.831
0.5544766 	 18.0796537 	 948.9047 	 1.090 	 52.816
0.5572297 	 18.4604548 	 1078.9016 	 1.089 	 52.811
0.5599327 	 18.8530226 	 1268.4922 	 1.089 	 52.807
0.5625906 	 19.2448853 	 1584.3293 	 1.089 	 52.815
0.5652059 	 19.6394384 	 2122.2553 	 1.087 	 52.799
0.5677776 	 20.0340162 	 2904.6540 	 1.088 	 52.771
0.5703034 	 20.4488008 	 4263.0138 	 1.089 	 52.766
0.5727865 	 20.8687256 	 6528.0099 	 1.090 	 52.772
0.5752306 	 21.2931746 	 9784.1710 	 1.092 	 52.767
0.5776332 	 21.7292004 	 15129.9845 	 1.094 	 52.754
0.5799949 	 22.1831273 	 22383.3813 	 1.096 	 52.776
0.5823137 	 22.6609519 	 32540.6805 	 1.100 	 52.792
0.5845915 	 23.1469817 	 46247.7828 	 1.105 	 52.786
0.5868276 	 23.6500170 	 63005.7777 	 1.110 	 52.761
0.5890210 	 24.1975427 	 83126.9168 	 1.115 	 52.790
0.5911709 	 24.7718168 	 104434.4892 	 1.120 	 52.806
0.5932756 	 25.3535802 	 125529.0254 	 1.127 	 52.790
0.5953358 	 25.9917682 	 144160.3438 	 1.133 	 52.808
0.5973492 	 26.6311384 	 159956.8113 	 1.139 	 52.827
0.5993182 	 27.3154975 	 171029.9843 	 1.145 	 52.851
0.6012428 	 28.0103314 	 180642.7315 	 1.151 	 52.841
0.6031264 	 28.7091781 	 190812.1392 	 1.155 	 52.828
0.6049656 	 29.4461813 	 200245.9593 	 1.159 	 52.850
0.6067637 	 30.1910655 	 215215.1138 	 1.162 	 52.844
0.6085202 	 30.9565249 	 237322.7474 	 1.164 	 52.848
0.6102376 	 31.7333707 	 268404.1796 	 1.164 	 52.845
0.6119148 	 32.5511583 	 304676.2075 	 1.165 	 52.856
0.6135544 	 33.4117312 	 346471.2489 	 1.164 	 52.851
0.6151529 	 34.2972448 	 389338.8506 	 1.163 	 52.831
0.6167115 	 35.2674214 	 431136.2824 	 1.162 	 52.868
0.6182306 	 36.2754258 	 473767.2890 	 1.162 	 52.880
0.6197090 	 37.3476051 	 514244.1273 	 1.161 	 52.875
0.6211470 	 38.4564718 	 552827.3768 	 1.159 	 52.878
0.6225444 	 39.6316591 	 592772.3184 	 1.158 	 52.869
0.6239025 	 40.8589213 	 631790.9795 	 1.157 	 52.852
0.6252211 	 42.1439882 	 666945.7118 	 1.157 	 52.845
0.6265002 	 43.4726674 	 703613.2321 	 1.156 	 52.838
0.6277424 	 44.8562260 	 737184.9764 	 1.154 	 52.845
0.6289490 	 46.2804386 	 770103.2002 	 1.153 	 52.832
