N=60 	 R=1000000 	 s=1 	 Save [density, Z, rho_t, like/unlike, events per sweep]
0.0002267 	 1.0008521 	 1.1027 	 0.997 	 7.112
0.0220596 	 1.1832767 	 12.0775 	 0.960 	 35.142
0.0428613 	 1.2260531 	 22.5988 	 0.998 	 47.964
0.0625871 	 1.3035341 	 32.8736 	 1.006 	 51.539
0.0813064 	 1.3962187 	 43.2905 	 1.008 	 52.654
0.0991096 	 1.4968294 	 53.4903 	 1.010 	 53.136
0.1160650 	 1.6046334 	 63.9836 	 1.012 	 53.368
0.1322193 	 1.7184851 	 74.4284 	 1.013 	 53.477
0.1476615 	 1.8366510 	 84.6085 	 1.014 	 53.594
0.1624230 	 1.9622440 	 95.0011 	 1.017 	 53.585
0.1765396 	 2.0917649 	 104.8848 	 1.019 	 53.546
0.1900692 	 2.2266078 	 113.9855 	 1.021 	 53.530
0.2030345 	 2.3661960 	 124.4959 	 1.023 	 53.520
0.2154919 	 2.5097844 	 134.9481 	 1.025 	 53.515
0.2274647 	 2.6571307 	 145.9116 	 1.028 	 53.482
0.2389866 	 2.8090475 	 156.6046 	 1.029 	 53.457
0.2500697 	 2.9663729 	 166.9758 	 1.031 	 53.454
0.2607438 	 3.1264617 	 177.3549 	 1.033 	 53.433
0.2710370 	 3.2907950 	 188.4322 	 1.035 	 53.405
0.2809620 	 3.4609010 	 199.8532 	 1.037 	 53.410
0.2905562 	 3.6340042 	 210.0149 	 1.039 	 53.398
0.2998322 	 3.8109544 	 222.7423 	 1.040 	 53.374
0.3087976 	 3.9933375 	 232.8307 	 1.043 	 53.375
0.3174735 	 4.1793680 	 243.5982 	 1.045 	 53.364
0.3258806 	 4.3686299 	 254.1612 	 1.046 	 53.338
0.3340165 	 4.5622088 	 263.6531 	 1.049 	 53.320
0.3419075 	 4.7604683 	 273.9270 	 1.051 	 53.312
0.3495672 	 4.9613274 	 283.9598 	 1.052 	 53.296
0.3569957 	 5.1687923 	 293.5933 	 1.054 	 53.283
0.3642100 	 5.3796497 	 305.2097 	 1.055 	 53.273
0.3712182 	 5.5918183 	 313.0907 	 1.059 	 53.253
0.3780283 	 5.8099008 	 323.6403 	 1.060 	 53.246
0.3846524 	 6.0320201 	 332.1443 	 1.061 	 53.230
0.3910999 	 6.2585214 	 343.4083 	 1.063 	 53.204
0.3973721 	 6.4881558 	 354.9803 	 1.065 	 53.214
0.4034807 	 6.7242643 	 364.9329 	 1.067 	 53.188
0.4094277 	 6.9597563 	 375.8067 	 1.068 	 53.183
0.4152241 	 7.2014930 	 385.3496 	 1.070 	 53.153
0.4208745 	 7.4503239 	 397.2446 	 1.072 	 53.180
0.4263850 	 7.6980812 	 409.5148 	 1.072 	 53.152
0.4317590 	 7.9549627 	 419.6815 	 1.074 	 53.154
0.4370052 	 8.2043321 	 429.2507 	 1.076 	 53.109
0.4421276 	 8.4687580 	 439.8167 	 1.077 	 53.106
0.4471269 	 8.7340971 	 450.4211 	 1.078 	 53.098
0.4520126 	 8.9979099 	 461.0126 	 1.078 	 53.063
0.4567888 	 9.2739277 	 466.2743 	 1.079 	 53.073
0.4614551 	 9.5531700 	 474.1427 	 1.081 	 53.050
0.4660190 	 9.8305273 	 484.7815 	 1.082 	 53.057
0.4704838 	 10.1141753 	 496.3942 	 1.083 	 53.030
0.4748491 	 10.3980807 	 509.9614 	 1.083 	 53.030
0.4791218 	 10.6893462 	 519.3841 	 1.085 	 52.995
0.4833082 	 10.9885816 	 529.7362 	 1.085 	 53.011
0.4874040 	 11.2810339 	 538.8875 	 1.086 	 52.974
0.4914129 	 11.5826512 	 550.3166 	 1.087 	 52.960
0.4953426 	 11.8929746 	 564.0011 	 1.088 	 52.974
0.4991923 	 12.2023748 	 568.9686 	 1.087 	 52.942
0.5029670 	 12.5156510 	 579.9261 	 1.088 	 52.933
0.5066630 	 12.8321764 	 589.2137 	 1.089 	 52.934
0.5102879 	 13.1517715 	 601.9991 	 1.090 	 52.931
0.5138402 	 13.4780835 	 612.5311 	 1.090 	 52.914
0.5173256 	 13.8088253 	 622.1176 	 1.091 	 52.912
0.5207471 	 14.1361886 	 628.9910 	 1.090 	 52.878
0.5241050 	 14.4737152 	 645.5640 	 1.091 	 52.893
0.5273968 	 14.8178081 	 653.1199 	 1.092 	 52.887
0.5306299 	 15.1578819 	 668.2907 	 1.090 	 52.862
0.5338051 	 15.5061062 	 681.9349 	 1.090 	 52.851
0.5369209 	 15.8583863 	 698.3256 	 1.090 	 52.845
0.5399815 	 16.2127103 	 720.9765 	 1.090 	 52.832
0.5429870 	 16.5771272 	 743.5592 	 1.089 	 52.837
0.5459417 	 16.9400578 	 779.8037 	 1.090 	 52.825
0.5488448 	 17.3132160 	 817.2163 	 1.089 	 52.825
0.5516945 	 17.6980866 	 864.5727 	 1.088 	 52.833
0.5544929 	 18.0844307 	 919.9162 	 1.088 	 52.836
0.5572436 	 18.4694250 	 997.1482 	 1.087 	 52.823
0.5599468 	 18.8683477 	 1108.7030 	 1.084 	 52.813
0.5626007 	 19.2706936 	 1256.2179 	 1.084 	 52.784
0.5652127 	 19.6885242 	 1459.6641 	 1.083 	 52.796
0.5677752 	 20.0917913 	 1772.3634 	 1.082 	 52.786
0.5702934 	 20.5342746 	 2211.1046 	 1.081 	 52.787
0.5727681 	 20.9737536 	 2856.7390 	 1.081 	 52.786
0.5751973 	 21.4432187 	 3752.8997 	 1.079 	 52.791
0.5775795 	 21.9072462 	 4958.6230 	 1.078 	 52.758
0.5799168 	 22.4144031 	 6448.9348 	 1.076 	 52.800
0.5822100 	 22.9260414 	 8196.8800 	 1.075 	 52.773
0.5844571 	 23.4590238 	 10394.1165 	 1.076 	 52.782
0.5866578 	 24.0249596 	 13194.4072 	 1.077 	 52.769
0.5888124 	 24.6062620 	 16942.5378 	 1.078 	 52.778
0.5909207 	 25.2060407 	 22322.9150 	 1.080 	 52.779
0.5929859 	 25.8262467 	 29832.7460 	 1.084 	 52.793
0.5950047 	 26.4590110 	 41238.7583 	 1.087 	 52.763
0.5969822 	 27.1125117 	 59115.5651 	 1.091 	 52.806
0.5989149 	 27.7713107 	 85506.8981 	 1.097 	 52.808
0.6008063 	 28.4509465 	 124427.3420 	 1.103 	 52.811
0.6026583 	 29.1452214 	 177493.5749 	 1.110 	 52.834
0.6044670 	 29.8725580 	 240865.7761 	 1.116 	 52.843
0.6062367 	 30.6309489 	 314678.2270 	 1.121 	 52.843
0.6079650 	 31.4489683 	 388061.1055 	 1.127 	 52.862
0.6096505 	 32.3102192 	 459261.3624 	 1.132 	 52.885
0.6112921 	 33.2249143 	 528402.9372 	 1.136 	 52.871
0.6128921 	 34.1895792 	 585830.1803 	 1.140 	 52.880
0.6144494 	 35.2114596 	 636239.3509 	 1.143 	 52.867
0.6159629 	 36.3010180 	 679280.8675 	 1.146 	 52.861
0.6174337 	 37.4108935 	 712655.8549 	 1.149 	 52.848
0.6188613 	 38.6013673 	 737678.6791 	 1.151 	 52.840
0.6202469 	 39.8434495 	 759658.0103 	 1.153 	 52.850
0.6215922 	 41.1102858 	 781084.6442 	 1.155 	 52.840
0.6228975 	 42.4540446 	 799403.2089 	 1.158 	 52.831
0.6241635 	 43.8102740 	 816424.8769 	 1.159 	 52.809
0.6253907 	 45.2730613 	 829260.0565 	 1.161 	 52.866
0.6265804 	 46.7389572 	 842975.7178 	 1.162 	 52.810
0.6277331 	 48.2787090 	 854756.1729 	 1.163 	 52.823
0.6288496 	 49.8729506 	 866489.9600 	 1.164 	 52.815
0.6299321 	 51.5165750 	 874787.5699 	 1.164 	 52.804
