N=60 	 R=1000000 	 s=1 	 Save [density, Z, rho_t, like/unlike, events per sweep]
0.0002273 	 1.0008647 	 1.1027 	 0.987 	 7.114
0.0220739 	 1.1832511 	 11.9685 	 0.960 	 35.154
0.0428602 	 1.2259909 	 22.4907 	 0.998 	 47.945
0.0625854 	 1.3036453 	 32.8971 	 1.006 	 51.543
0.0813021 	 1.3960748 	 43.3646 	 1.007 	 52.637
0.0991050 	 1.4967106 	 53.8317 	 1.009 	 53.121
0.1160509 	 1.6043891 	 64.1727 	 1.011 	 53.359
0.1322214 	 1.7184279 	 75.2199 	 1.013 	 53.475
0.1476516 	 1.8364830 	 85.7645 	 1.014 	 53.590
0.1624073 	 1.9616767 	 96.3330 	 1.017 	 53.557
0.1765355 	 2.0921019 	 106.3842 	 1.019 	 53.560
0.1900749 	 2.2265245 	 116.4846 	 1.021 	 53.524
0.2030607 	 2.3656427 	 126.5468 	 1.023 	 53.518
0.2155181 	 2.5089626 	 136.3196 	 1.025 	 53.482
0.2274960 	 2.6572564 	 147.1802 	 1.027 	 53.462
0.2390193 	 2.8093708 	 158.5393 	 1.029 	 53.473
0.2501057 	 2.9663321 	 168.2087 	 1.031 	 53.459
0.2607824 	 3.1268166 	 178.1564 	 1.032 	 53.440
0.2710830 	 3.2917832 	 189.0294 	 1.035 	 53.418
0.2810194 	 3.4612527 	 199.6535 	 1.037 	 53.384
0.2906112 	 3.6358844 	 210.7765 	 1.038 	 53.396
0.2998855 	 3.8121026 	 220.4161 	 1.040 	 53.374
0.3088464 	 3.9947731 	 230.5310 	 1.042 	 53.387
0.3175272 	 4.1806790 	 240.1746 	 1.045 	 53.370
0.3259295 	 4.3704384 	 249.7743 	 1.046 	 53.354
0.3340627 	 4.5645851 	 259.5196 	 1.049 	 53.334
0.3419536 	 4.7606988 	 267.6272 	 1.051 	 53.310
0.3496080 	 4.9640473 	 277.8202 	 1.052 	 53.282
0.3570380 	 5.1702738 	 287.9665 	 1.054 	 53.280
0.3642480 	 5.3807969 	 300.4222 	 1.056 	 53.270
0.3712564 	 5.5941754 	 310.2288 	 1.058 	 53.261
0.3780666 	 5.8126522 	 318.4953 	 1.060 	 53.248
0.3846884 	 6.0350825 	 329.6716 	 1.062 	 53.231
0.3911311 	 6.2615582 	 341.8743 	 1.063 	 53.229
0.3974039 	 6.4916483 	 351.6639 	 1.065 	 53.217
0.4035095 	 6.7237580 	 360.7243 	 1.067 	 53.202
0.4094571 	 6.9616175 	 370.9051 	 1.069 	 53.172
0.4152513 	 7.2048271 	 380.4652 	 1.070 	 53.167
0.4208996 	 7.4486711 	 390.3843 	 1.071 	 53.155
0.4264068 	 7.6962374 	 399.5596 	 1.072 	 53.132
0.4317822 	 7.9496881 	 411.6200 	 1.075 	 53.131
0.4370247 	 8.2072923 	 420.2276 	 1.076 	 53.103
0.4421460 	 8.4683166 	 430.1051 	 1.077 	 53.106
0.4471476 	 8.7358286 	 442.2167 	 1.077 	 53.076
0.4520347 	 9.0035824 	 451.3985 	 1.079 	 53.067
0.4568090 	 9.2751050 	 460.1512 	 1.081 	 53.069
0.4614741 	 9.5486398 	 469.1911 	 1.082 	 53.026
0.4660372 	 9.8294327 	 479.2675 	 1.083 	 53.046
0.4704971 	 10.1113947 	 490.9126 	 1.084 	 53.028
0.4748623 	 10.3998326 	 500.3144 	 1.085 	 53.026
0.4791325 	 10.6882909 	 508.5751 	 1.085 	 53.008
0.4833142 	 10.9844721 	 514.4789 	 1.085 	 52.999
0.4874078 	 11.2842869 	 524.4708 	 1.087 	 52.988
0.4914198 	 11.5874579 	 536.6848 	 1.087 	 52.968
0.4953459 	 11.8942772 	 546.6203 	 1.087 	 52.986
0.4991942 	 12.2024418 	 557.3320 	 1.088 	 52.954
0.5029657 	 12.5146371 	 572.9125 	 1.089 	 52.946
0.5066602 	 12.8323243 	 583.5021 	 1.090 	 52.942
0.5102829 	 13.1554992 	 595.0550 	 1.090 	 52.927
0.5138387 	 13.4786720 	 605.6137 	 1.090 	 52.913
0.5173218 	 13.8077773 	 616.0050 	 1.090 	 52.902
0.5207447 	 14.1363855 	 629.7157 	 1.090 	 52.895
0.5241019 	 14.4785371 	 645.7556 	 1.090 	 52.895
0.5274001 	 14.8222363 	 659.2249 	 1.091 	 52.900
0.5306330 	 15.1614501 	 672.5146 	 1.091 	 52.883
0.5338104 	 15.5054192 	 685.1408 	 1.089 	 52.861
0.5369240 	 15.8654279 	 702.9221 	 1.090 	 52.866
0.5399845 	 16.2149085 	 725.8795 	 1.090 	 52.836
0.5429947 	 16.5750024 	 753.3347 	 1.090 	 52.857
0.5459512 	 16.9446765 	 785.2405 	 1.089 	 52.849
0.5488548 	 17.3053383 	 832.3327 	 1.089 	 52.830
0.5517061 	 17.6796265 	 899.4229 	 1.089 	 52.817
0.5545088 	 18.0616491 	 996.7322 	 1.088 	 52.813
0.5572644 	 18.4522461 	 1140.4325 	 1.089 	 52.806
0.5599722 	 18.8384260 	 1369.8704 	 1.089 	 52.807
0.5626319 	 19.2388295 	 1660.7810 	 1.090 	 52.807
0.5652470 	 19.6402713 	 2095.8555 	 1.090 	 52.803
0.5678172 	 20.0611230 	 2690.4463 	 1.092 	 52.785
0.5703408 	 20.5093636 	 3374.3521 	 1.093 	 52.777
0.5728199 	 20.9637475 	 4290.5565 	 1.093 	 52.796
0.5752480 	 21.4352144 	 5287.3304 	 1.095 	 52.768
0.5776288 	 21.9284498 	 6632.1734 	 1.095 	 52.786
0.5799642 	 22.4553180 	 8260.2930 	 1.096 	 52.787
0.5822518 	 23.0055501 	 10124.7136 	 1.096 	 52.780
0.5844914 	 23.5704015 	 12123.6872 	 1.096 	 52.776
0.5866832 	 24.1444884 	 14346.1754 	 1.095 	 52.791
0.5888278 	 24.7453135 	 17067.3762 	 1.094 	 52.774
0.5909285 	 25.3464378 	 20650.9191 	 1.094 	 52.770
0.5929816 	 25.9508975 	 25724.8393 	 1.090 	 52.787
0.5949916 	 26.5601590 	 33878.1633 	 1.088 	 52.802
0.5969608 	 27.1807998 	 48542.0036 	 1.083 	 52.809
0.5988904 	 27.7742959 	 74398.1516 	 1.078 	 52.819
0.6007843 	 28.3867670 	 116162.2572 	 1.072 	 52.856
0.6026421 	 28.9808202 	 180482.4694 	 1.065 	 52.885
0.6044656 	 29.6226342 	 266225.9581 	 1.060 	 52.933
0.6062522 	 30.2892272 	 366355.6359 	 1.054 	 52.950
0.6080020 	 31.0288792 	 475141.1037 	 1.050 	 53.016
0.6097138 	 31.8192536 	 576343.3533 	 1.046 	 53.043
0.6113839 	 32.6992759 	 666235.2265 	 1.046 	 53.072
0.6130122 	 33.6353307 	 745904.6141 	 1.045 	 53.098
0.6145950 	 34.6503459 	 810629.2933 	 1.045 	 53.127
0.6161339 	 35.7057066 	 859106.8811 	 1.047 	 53.121
0.6176297 	 36.8509422 	 896106.5544 	 1.050 	 53.159
0.6190811 	 38.0345611 	 925496.6412 	 1.053 	 53.168
0.6204879 	 39.2731260 	 945044.5605 	 1.055 	 53.169
0.6218523 	 40.5484004 	 959527.9792 	 1.059 	 53.148
0.6231750 	 41.9245502 	 970808.7469 	 1.063 	 53.174
0.6244574 	 43.3174006 	 979121.7527 	 1.067 	 53.157
0.6256984 	 44.7732298 	 984842.1988 	 1.071 	 53.143
0.6269010 	 46.2734092 	 988351.6648 	 1.075 	 53.144
0.6280669 	 47.8596798 	 991945.8660 	 1.080 	 53.140
0.6291954 	 49.4634815 	 994133.4063 	 1.082 	 53.118
