N=60 	 R=1000000 	 s=1 	 Save [density, Z, rho_t, like/unlike, events per sweep]
0.0002266 	 1.0008633 	 1.1027 	 0.991 	 7.114
0.0220713 	 1.1832465 	 12.0421 	 0.960 	 35.133
0.0428580 	 1.2260348 	 22.7262 	 0.998 	 47.976
0.0625826 	 1.3035284 	 33.2360 	 1.005 	 51.551
0.0812845 	 1.3960185 	 43.8555 	 1.008 	 52.626
0.0990891 	 1.4967882 	 54.0701 	 1.010 	 53.146
0.1160463 	 1.6042259 	 64.3133 	 1.011 	 53.352
0.1322190 	 1.7182705 	 74.5476 	 1.013 	 53.470
0.1476630 	 1.8364206 	 85.2405 	 1.014 	 53.576
0.1624162 	 1.9621451 	 95.6883 	 1.016 	 53.575
0.1765391 	 2.0921631 	 107.3491 	 1.019 	 53.555
0.1900703 	 2.2268152 	 117.0616 	 1.021 	 53.530
0.2030570 	 2.3658688 	 127.1034 	 1.023 	 53.510
0.2155048 	 2.5094457 	 136.9728 	 1.025 	 53.502
0.2274644 	 2.6567268 	 147.0381 	 1.028 	 53.482
0.2389746 	 2.8093633 	 157.2061 	 1.029 	 53.468
0.2500599 	 2.9653173 	 168.1864 	 1.031 	 53.438
0.2607370 	 3.1262620 	 178.5289 	 1.033 	 53.443
0.2710370 	 3.2918162 	 189.6497 	 1.034 	 53.445
0.2809785 	 3.4607749 	 199.2286 	 1.037 	 53.398
0.2905793 	 3.6347188 	 210.6156 	 1.039 	 53.392
0.2998573 	 3.8117747 	 220.8509 	 1.041 	 53.377
0.3088236 	 3.9946741 	 230.0215 	 1.042 	 53.375
0.3174977 	 4.1789800 	 240.3662 	 1.044 	 53.346
0.3258932 	 4.3686735 	 252.1902 	 1.047 	 53.339
0.3340320 	 4.5631204 	 262.1460 	 1.049 	 53.330
0.3419279 	 4.7602531 	 271.2723 	 1.050 	 53.303
0.3495821 	 4.9645748 	 281.9036 	 1.052 	 53.296
0.3570117 	 5.1705600 	 294.0035 	 1.055 	 53.300
0.3642263 	 5.3795010 	 302.7587 	 1.056 	 53.275
0.3712338 	 5.5941466 	 312.8777 	 1.059 	 53.252
0.3780437 	 5.8110910 	 320.6159 	 1.061 	 53.237
0.3846689 	 6.0342241 	 331.3025 	 1.062 	 53.225
0.3911124 	 6.2603993 	 343.5727 	 1.064 	 53.231
0.3973847 	 6.4884993 	 353.8874 	 1.066 	 53.182
0.4034949 	 6.7235859 	 364.4286 	 1.067 	 53.198
0.4094429 	 6.9609601 	 372.6965 	 1.068 	 53.188
0.4152380 	 7.2032548 	 385.4236 	 1.070 	 53.163
0.4208857 	 7.4482661 	 395.9894 	 1.071 	 53.152
0.4263950 	 7.6988409 	 407.6548 	 1.073 	 53.133
0.4317706 	 7.9538550 	 415.7537 	 1.074 	 53.140
0.4370161 	 8.2087635 	 422.0262 	 1.075 	 53.115
0.4421365 	 8.4664360 	 436.6757 	 1.077 	 53.106
0.4471346 	 8.7321907 	 450.3065 	 1.078 	 53.078
0.4520197 	 8.9998435 	 460.6032 	 1.079 	 53.068
0.4567941 	 9.2727058 	 470.4508 	 1.080 	 53.076
0.4614614 	 9.5498393 	 481.9088 	 1.081 	 53.054
0.4660251 	 9.8265216 	 490.1146 	 1.082 	 53.032
0.4704849 	 10.1133773 	 502.0288 	 1.084 	 53.027
0.4748515 	 10.4019068 	 508.8848 	 1.083 	 53.025
0.4791237 	 10.6916182 	 525.6084 	 1.086 	 53.018
0.4833055 	 10.9825266 	 532.9665 	 1.087 	 52.981
0.4874016 	 11.2835097 	 543.5213 	 1.087 	 52.977
0.4914123 	 11.5866962 	 557.5703 	 1.089 	 52.978
0.4953380 	 11.8893288 	 570.2579 	 1.090 	 52.960
0.4991887 	 12.2040467 	 580.2718 	 1.090 	 52.953
0.5029579 	 12.5131394 	 588.0898 	 1.091 	 52.939
0.5066533 	 12.8334335 	 599.4154 	 1.091 	 52.931
0.5102790 	 13.1538375 	 612.6450 	 1.091 	 52.910
0.5138324 	 13.4831848 	 625.8695 	 1.090 	 52.918
0.5173163 	 13.8081753 	 637.5234 	 1.090 	 52.905
0.5207362 	 14.1433468 	 649.9877 	 1.090 	 52.904
0.5240922 	 14.4820009 	 662.3299 	 1.092 	 52.895
0.5273869 	 14.8171507 	 678.8799 	 1.091 	 52.878
0.5306207 	 15.1621068 	 696.7702 	 1.090 	 52.887
0.5337945 	 15.5142884 	 714.3385 	 1.091 	 52.868
0.5369122 	 15.8681569 	 729.5377 	 1.090 	 52.850
0.5399720 	 16.2293297 	 746.4022 	 1.089 	 52.849
0.5429767 	 16.5913272 	 768.6227 	 1.089 	 52.832
0.5459291 	 16.9593062 	 802.6263 	 1.089 	 52.833
0.5488270 	 17.3270528 	 833.8897 	 1.089 	 52.809
0.5516742 	 17.7065294 	 885.0029 	 1.088 	 52.823
0.5544730 	 18.0877396 	 944.3374 	 1.086 	 52.823
0.5572246 	 18.4566313 	 1029.3831 	 1.085 	 52.794
0.5599276 	 18.8499331 	 1146.9573 	 1.083 	 52.805
0.5625871 	 19.2497267 	 1306.6785 	 1.081 	 52.801
0.5651996 	 19.6536283 	 1533.7346 	 1.080 	 52.798
0.5677671 	 20.0715790 	 1839.7330 	 1.078 	 52.797
0.5702888 	 20.5077776 	 2311.8202 	 1.076 	 52.816
0.5727670 	 20.9289514 	 3100.2715 	 1.075 	 52.792
0.5752015 	 21.3688037 	 4310.3578 	 1.073 	 52.774
0.5775924 	 21.8237047 	 6282.9439 	 1.070 	 52.805
0.5799410 	 22.3026622 	 9343.2283 	 1.067 	 52.819
0.5822472 	 22.7821978 	 14118.4475 	 1.064 	 52.807
0.5845097 	 23.2925758 	 21378.1608 	 1.060 	 52.806
0.5867272 	 23.8268798 	 31393.3066 	 1.056 	 52.801
0.5889041 	 24.3961457 	 44867.3651 	 1.052 	 52.811
0.5910334 	 24.9829854 	 63009.9462 	 1.049 	 52.841
0.5931166 	 25.5847039 	 85311.0821 	 1.044 	 52.808
0.5951564 	 26.2464133 	 110499.4812 	 1.040 	 52.839
0.5971475 	 26.9383532 	 138659.9256 	 1.035 	 52.838
0.5990908 	 27.6710702 	 166505.5863 	 1.030 	 52.850
0.6009879 	 28.4314695 	 193496.0656 	 1.026 	 52.855
0.6028360 	 29.2357452 	 218423.7783 	 1.022 	 52.877
0.6046376 	 30.0699574 	 237196.5769 	 1.018 	 52.881
0.6063945 	 30.9249267 	 249358.9895 	 1.016 	 52.858
0.6081036 	 31.7995458 	 253163.4027 	 1.015 	 52.885
0.6097696 	 32.7102377 	 248216.6193 	 1.016 	 52.907
0.6113918 	 33.6283149 	 242275.5363 	 1.019 	 52.947
0.6129726 	 34.5511796 	 235343.0912 	 1.025 	 52.931
0.6145147 	 35.4743023 	 233170.8082 	 1.032 	 52.958
0.6160200 	 36.3985840 	 245634.6621 	 1.040 	 52.987
0.6174902 	 37.3329317 	 277474.8852 	 1.051 	 53.025
0.6189261 	 38.2827953 	 329299.8440 	 1.064 	 53.051
0.6203283 	 39.2879752 	 393241.8217 	 1.073 	 53.074
0.6216959 	 40.3697765 	 463517.0388 	 1.083 	 53.115
0.6230283 	 41.4983611 	 531256.5162 	 1.093 	 53.128
0.6243249 	 42.7015948 	 590618.5477 	 1.101 	 53.130
0.6255859 	 44.0202153 	 638953.0678 	 1.107 	 53.138
0.6268105 	 45.3941486 	 678047.5030 	 1.112 	 53.174
0.6279994 	 46.8449905 	 709828.2702 	 1.116 	 53.171
0.6291522 	 48.3423648 	 736634.0963 	 1.120 	 53.195
