N=60 	 R=1000000 	 s=1 	 Save [density, Z, rho_t, like/unlike, events per sweep]
0.0002269 	 1.0008604 	 1.1026 	 0.999 	 7.114
0.0220752 	 1.1832509 	 12.0300 	 0.961 	 35.151
0.0428665 	 1.2258859 	 22.5305 	 0.998 	 47.955
0.0625985 	 1.3035413 	 33.0305 	 1.007 	 51.560
0.0812971 	 1.3960170 	 43.4698 	 1.008 	 52.644
0.0990931 	 1.4965068 	 53.9841 	 1.009 	 53.106
0.1160340 	 1.6043057 	 64.6101 	 1.010 	 53.355
0.1322144 	 1.7184379 	 74.5913 	 1.013 	 53.483
0.1476562 	 1.8364113 	 84.8377 	 1.014 	 53.587
0.1624224 	 1.9619385 	 95.6569 	 1.017 	 53.552
0.1765508 	 2.0919701 	 105.5491 	 1.018 	 53.553
0.1900828 	 2.2264319 	 115.8790 	 1.021 	 53.522
0.2030575 	 2.3656534 	 125.6997 	 1.023 	 53.509
0.2155306 	 2.5094998 	 136.5068 	 1.026 	 53.494
0.2274930 	 2.6570869 	 147.7647 	 1.027 	 53.476
0.2390063 	 2.8095236 	 158.9307 	 1.029 	 53.460
0.2500956 	 2.9666561 	 168.5620 	 1.032 	 53.451
0.2607717 	 3.1268801 	 179.0040 	 1.033 	 53.450
0.2710718 	 3.2916896 	 189.8458 	 1.034 	 53.426
0.2810086 	 3.4618950 	 200.9115 	 1.036 	 53.406
0.2906004 	 3.6351195 	 210.4547 	 1.039 	 53.393
0.2998767 	 3.8132720 	 219.0889 	 1.041 	 53.392
0.3088406 	 3.9930532 	 228.9405 	 1.042 	 53.351
0.3175201 	 4.1790790 	 240.5246 	 1.044 	 53.332
0.3259218 	 4.3711507 	 251.8215 	 1.046 	 53.346
0.3340572 	 4.5650357 	 261.6921 	 1.048 	 53.345
0.3419499 	 4.7622353 	 271.8330 	 1.050 	 53.313
0.3496029 	 4.9646478 	 279.7590 	 1.052 	 53.294
0.3570311 	 5.1702618 	 288.1256 	 1.054 	 53.281
0.3642376 	 5.3812910 	 299.4776 	 1.056 	 53.292
0.3712399 	 5.5942048 	 308.2794 	 1.058 	 53.271
0.3780531 	 5.8123139 	 318.0169 	 1.060 	 53.255
0.3846743 	 6.0335804 	 329.7005 	 1.061 	 53.233
0.3911216 	 6.2592679 	 339.1184 	 1.063 	 53.214
0.3973924 	 6.4896813 	 348.8745 	 1.066 	 53.199
0.4034947 	 6.7236816 	 359.9013 	 1.067 	 53.179
0.4094414 	 6.9639320 	 372.5867 	 1.069 	 53.202
0.4152369 	 7.2032268 	 384.6729 	 1.070 	 53.162
0.4208848 	 7.4482314 	 398.1319 	 1.072 	 53.157
0.4263975 	 7.6969559 	 408.9778 	 1.073 	 53.141
0.4317741 	 7.9511379 	 419.5520 	 1.074 	 53.139
0.4370223 	 8.2089287 	 431.2792 	 1.075 	 53.112
0.4421443 	 8.4710481 	 441.5554 	 1.077 	 53.105
0.4471461 	 8.7326494 	 450.1382 	 1.078 	 53.079
0.4520302 	 9.0031315 	 461.2251 	 1.078 	 53.064
0.4568064 	 9.2756185 	 471.3810 	 1.080 	 53.064
0.4614736 	 9.5502551 	 478.2239 	 1.081 	 53.048
0.4660381 	 9.8283662 	 491.8006 	 1.082 	 53.038
0.4705000 	 10.1137951 	 502.8295 	 1.083 	 53.039
0.4748636 	 10.4016241 	 516.2453 	 1.084 	 53.022
0.4791407 	 10.6902128 	 523.3908 	 1.086 	 53.012
0.4833221 	 10.9865713 	 538.6495 	 1.086 	 52.984
0.4874160 	 11.2844557 	 544.5543 	 1.087 	 52.994
0.4914255 	 11.5866428 	 554.5660 	 1.088 	 52.972
0.4953518 	 11.8932351 	 573.6972 	 1.088 	 52.971
0.4992011 	 12.2024187 	 580.0659 	 1.089 	 52.948
0.5029738 	 12.5140711 	 589.7972 	 1.089 	 52.948
0.5066713 	 12.8342521 	 604.9595 	 1.088 	 52.952
0.5102962 	 13.1547348 	 617.5842 	 1.090 	 52.933
0.5138513 	 13.4769823 	 629.8247 	 1.090 	 52.911
0.5173422 	 13.8108617 	 645.1985 	 1.089 	 52.890
0.5207625 	 14.1399691 	 655.8670 	 1.090 	 52.912
0.5241193 	 14.4782545 	 667.5646 	 1.090 	 52.877
0.5274130 	 14.8191031 	 683.3657 	 1.089 	 52.882
0.5306421 	 15.1688125 	 696.5739 	 1.090 	 52.898
0.5338112 	 15.5113648 	 711.8291 	 1.090 	 52.860
0.5369265 	 15.8730291 	 732.2408 	 1.089 	 52.862
0.5399833 	 16.2186970 	 754.3129 	 1.088 	 52.848
0.5429903 	 16.5754122 	 784.8431 	 1.088 	 52.832
0.5459433 	 16.9468965 	 817.9352 	 1.088 	 52.859
0.5488452 	 17.3031231 	 877.3946 	 1.088 	 52.832
0.5516982 	 17.6644557 	 980.4248 	 1.087 	 52.820
0.5545027 	 18.0496307 	 1140.1516 	 1.087 	 52.827
0.5572615 	 18.4170894 	 1422.2699 	 1.087 	 52.803
0.5599749 	 18.7903081 	 1923.8897 	 1.087 	 52.812
0.5626466 	 19.1721035 	 2772.0642 	 1.088 	 52.792
0.5652738 	 19.5563736 	 4207.0482 	 1.090 	 52.795
0.5678558 	 19.9480022 	 6584.3301 	 1.094 	 52.804
0.5703960 	 20.3358568 	 10400.0877 	 1.098 	 52.772
0.5728982 	 20.7601750 	 16505.0409 	 1.104 	 52.787
0.5753565 	 21.1859014 	 25447.9939 	 1.111 	 52.795
0.5777709 	 21.6337387 	 36363.5238 	 1.120 	 52.790
0.5801419 	 22.1083703 	 48828.0675 	 1.129 	 52.805
0.5824688 	 22.5895287 	 63137.4297 	 1.139 	 52.799
0.5847511 	 23.1126495 	 78924.2953 	 1.147 	 52.795
0.5869905 	 23.6476738 	 96196.5610 	 1.156 	 52.793
0.5891829 	 24.1957107 	 116719.5538 	 1.164 	 52.797
0.5913313 	 24.7743291 	 138436.3563 	 1.173 	 52.793
0.5934359 	 25.3978567 	 158571.5743 	 1.178 	 52.804
0.5954907 	 26.0524807 	 178588.0173 	 1.182 	 52.801
0.5974987 	 26.7586310 	 195561.1035 	 1.184 	 52.775
0.5994554 	 27.5047430 	 210515.0852 	 1.185 	 52.770
0.6013629 	 28.2983254 	 223473.4464 	 1.185 	 52.750
0.6032213 	 29.1111690 	 236344.2369 	 1.182 	 52.735
0.6050310 	 29.9874669 	 245342.7597 	 1.176 	 52.744
0.6067918 	 30.8891326 	 256605.7569 	 1.170 	 52.700
0.6085020 	 31.8248047 	 269101.1986 	 1.163 	 52.673
0.6101661 	 32.7930758 	 287697.1968 	 1.152 	 52.656
0.6117827 	 33.8016115 	 312048.3369 	 1.142 	 52.612
0.6133540 	 34.8504265 	 344448.3308 	 1.131 	 52.593
0.6148808 	 35.9101147 	 384286.1434 	 1.120 	 52.550
0.6163632 	 37.0534100 	 433192.9376 	 1.112 	 52.549
0.6178042 	 38.2149110 	 487006.1603 	 1.102 	 52.494
0.6192017 	 39.4364046 	 542351.3251 	 1.094 	 52.476
0.6205586 	 40.7269470 	 593322.5746 	 1.089 	 52.467
0.6218746 	 42.0497532 	 646225.2380 	 1.086 	 52.434
0.6231500 	 43.4447744 	 689660.1838 	 1.083 	 52.395
0.6243852 	 44.9097336 	 722179.1049 	 1.082 	 52.384
0.6255818 	 46.4344552 	 747733.2586 	 1.083 	 52.353
0.6267401 	 48.0308004 	 760651.9696 	 1.086 	 52.354
0.6278613 	 49.6460135 	 762138.2026 	 1.089 	 52.338
0.6289475 	 51.3535435 	 751140.5733 	 1.094 	 52.317
0.6299970 	 53.0749630 	 726752.1953 	 1.101 	 52.314
