N=60 	 R=1000000 	 s=1 	 Save [density, Z, rho_t, like/unlike, events per sweep]
0.0002263 	 1.0008552 	 1.1026 	 0.990 	 7.113
0.0220662 	 1.1833185 	 12.0575 	 0.959 	 35.138
0.0428482 	 1.2259405 	 22.5676 	 0.998 	 47.976
0.0625655 	 1.3034809 	 33.0474 	 1.007 	 51.552
0.0812874 	 1.3960618 	 43.4626 	 1.008 	 52.640
0.0990917 	 1.4967490 	 53.9290 	 1.009 	 53.153
0.1160349 	 1.6040480 	 64.2467 	 1.011 	 53.357
0.1321999 	 1.7181695 	 75.1962 	 1.013 	 53.461
0.1476479 	 1.8363819 	 85.7526 	 1.015 	 53.594
0.1623979 	 1.9618328 	 96.4034 	 1.016 	 53.566
0.1765158 	 2.0918502 	 107.0862 	 1.018 	 53.560
0.1900460 	 2.2264423 	 118.4749 	 1.021 	 53.525
0.2030101 	 2.3655632 	 128.3477 	 1.023 	 53.528
0.2154651 	 2.5082039 	 139.1469 	 1.025 	 53.500
0.2274352 	 2.6564303 	 149.8089 	 1.027 	 53.473
0.2389456 	 2.8081716 	 159.3876 	 1.029 	 53.433
0.2500334 	 2.9651992 	 170.0039 	 1.031 	 53.450
0.2607141 	 3.1265432 	 181.1832 	 1.034 	 53.436
0.2710137 	 3.2912194 	 192.8877 	 1.034 	 53.437
0.2809553 	 3.4610250 	 205.0804 	 1.036 	 53.426
0.2905447 	 3.6338865 	 217.7003 	 1.038 	 53.389
0.2998203 	 3.8111394 	 227.0046 	 1.040 	 53.383
0.3087743 	 3.9928890 	 235.7123 	 1.043 	 53.378
0.3174521 	 4.1774941 	 245.7972 	 1.044 	 53.350
0.3258493 	 4.3681750 	 255.4999 	 1.047 	 53.350
0.3339954 	 4.5625355 	 265.4065 	 1.050 	 53.328
0.3418946 	 4.7616609 	 277.0282 	 1.051 	 53.332
0.3495483 	 4.9631323 	 286.5825 	 1.052 	 53.313
0.3569818 	 5.1680252 	 297.7968 	 1.054 	 53.292
0.3641927 	 5.3794870 	 308.3002 	 1.056 	 53.276
0.3712005 	 5.5925869 	 316.5839 	 1.058 	 53.268
0.3780097 	 5.8083194 	 326.1750 	 1.059 	 53.223
0.3846288 	 6.0347588 	 336.5258 	 1.062 	 53.251
0.3910764 	 6.2567135 	 348.0894 	 1.064 	 53.203
0.3973505 	 6.4888475 	 357.2561 	 1.066 	 53.212
0.4034582 	 6.7221723 	 367.3764 	 1.067 	 53.193
0.4094096 	 6.9602250 	 378.3630 	 1.069 	 53.185
0.4152106 	 7.2031472 	 388.1356 	 1.071 	 53.175
0.4208609 	 7.4476893 	 398.4079 	 1.071 	 53.146
0.4263680 	 7.6991454 	 408.0478 	 1.073 	 53.152
0.4317404 	 7.9500812 	 418.2374 	 1.075 	 53.142
0.4369881 	 8.2073845 	 427.8431 	 1.076 	 53.116
0.4421107 	 8.4654702 	 437.9447 	 1.077 	 53.084
0.4471102 	 8.7310604 	 449.3830 	 1.078 	 53.075
0.4519965 	 9.0015439 	 460.5763 	 1.080 	 53.077
0.4567688 	 9.2735610 	 470.0930 	 1.080 	 53.060
0.4614360 	 9.5480643 	 481.6035 	 1.081 	 53.061
0.4660045 	 9.8291005 	 491.8910 	 1.082 	 53.046
0.4704683 	 10.1113862 	 503.5688 	 1.083 	 53.036
0.4748364 	 10.3979864 	 511.7832 	 1.085 	 53.021
0.4791085 	 10.6905940 	 525.7944 	 1.085 	 53.013
0.4832932 	 10.9828551 	 539.2719 	 1.087 	 52.996
0.4873850 	 11.2828484 	 551.1333 	 1.087 	 52.984
0.4913967 	 11.5886409 	 554.5368 	 1.088 	 52.974
0.4953250 	 11.8921438 	 568.3106 	 1.087 	 52.969
0.4991730 	 12.2029668 	 581.2011 	 1.089 	 52.953
0.5029461 	 12.5154819 	 593.3821 	 1.090 	 52.937
0.5066446 	 12.8268717 	 605.4659 	 1.089 	 52.929
0.5102692 	 13.1480046 	 622.4758 	 1.089 	 52.928
0.5138238 	 13.4750513 	 632.2319 	 1.090 	 52.908
0.5173119 	 13.8057072 	 646.3825 	 1.090 	 52.911
0.5207321 	 14.1399265 	 660.5224 	 1.090 	 52.899
0.5240888 	 14.4717675 	 672.3461 	 1.090 	 52.885
0.5273835 	 14.8137776 	 684.3761 	 1.090 	 52.878
0.5306188 	 15.1598943 	 692.3636 	 1.090 	 52.886
0.5337945 	 15.5122049 	 707.1272 	 1.090 	 52.851
0.5369085 	 15.8697895 	 720.4539 	 1.089 	 52.861
0.5399696 	 16.2243568 	 741.6627 	 1.089 	 52.841
0.5429742 	 16.5845277 	 762.2194 	 1.088 	 52.848
0.5459260 	 16.9563131 	 778.5189 	 1.088 	 52.830
0.5488243 	 17.3282995 	 809.4439 	 1.088 	 52.829
0.5516731 	 17.6904984 	 852.1176 	 1.086 	 52.798
0.5544753 	 18.0772661 	 906.1577 	 1.085 	 52.824
0.5572266 	 18.4626518 	 977.6201 	 1.084 	 52.788
0.5599296 	 18.8607594 	 1083.9820 	 1.083 	 52.813
0.5625869 	 19.2564208 	 1242.8474 	 1.082 	 52.801
0.5652003 	 19.6629152 	 1464.8733 	 1.081 	 52.791
0.5677673 	 20.0872193 	 1792.0711 	 1.079 	 52.801
0.5702878 	 20.5094614 	 2329.4714 	 1.079 	 52.782
0.5727671 	 20.9446255 	 3146.3755 	 1.078 	 52.782
0.5751988 	 21.3938940 	 4277.6684 	 1.077 	 52.760
0.5775864 	 21.8736043 	 5868.1124 	 1.076 	 52.749
0.5799301 	 22.3833585 	 7971.1666 	 1.075 	 52.751
0.5822259 	 22.9041288 	 10557.5709 	 1.073 	 52.724
0.5844741 	 23.4728753 	 13510.1608 	 1.073 	 52.737
0.5866753 	 24.0637654 	 16881.3797 	 1.073 	 52.721
0.5888247 	 24.6638398 	 20661.4867 	 1.073 	 52.693
0.5909272 	 25.2933917 	 25295.4839 	 1.072 	 52.709
0.5929821 	 25.9720207 	 29031.6756 	 1.071 	 52.710
0.5949893 	 26.6368514 	 33288.9460 	 1.070 	 52.716
0.5969492 	 27.3243361 	 37686.2286 	 1.069 	 52.696
0.5988667 	 28.0049838 	 44054.3390 	 1.066 	 52.735
0.6007418 	 28.6596247 	 54383.7265 	 1.063 	 52.720
0.6025812 	 29.2809521 	 73420.8203 	 1.057 	 52.777
0.6043869 	 29.8641262 	 104945.5252 	 1.051 	 52.792
0.6061607 	 30.4292830 	 154917.2102 	 1.043 	 52.843
0.6079095 	 30.9881967 	 224808.8357 	 1.032 	 52.891
0.6096276 	 31.5863791 	 306945.6902 	 1.024 	 52.902
0.6113153 	 32.2718536 	 392633.6513 	 1.016 	 52.944
0.6129688 	 33.0516820 	 476256.3990 	 1.009 	 52.950
0.6145834 	 33.9273288 	 558140.4243 	 1.003 	 52.963
0.6161591 	 34.8658565 	 633269.6463 	 0.999 	 52.968
0.6176931 	 35.8978945 	 699254.2553 	 0.996 	 52.981
0.6191858 	 36.9754702 	 758041.4439 	 0.993 	 52.959
0.6206352 	 38.1434935 	 808886.2564 	 0.992 	 52.949
0.6220429 	 39.3435105 	 851628.2892 	 0.992 	 52.982
0.6234097 	 40.5911791 	 886755.1619 	 0.993 	 52.940
0.6247356 	 41.9372467 	 913690.7650 	 0.996 	 52.944
0.6260207 	 43.3228710 	 934926.0290 	 0.998 	 52.934
0.6272661 	 44.7540142 	 952667.0843 	 1.001 	 52.905
0.6284722 	 46.2900801 	 964460.4858 	 1.005 	 52.938
0.6296394 	 47.8394733 	 973682.6144 	 1.009 	 52.901
