N=60 	 R=1000000 	 s=1 	 Save [density, Z, rho_t, like/unlike, events per sweep]
0.0002240 	 1.0008461 	 1.1026 	 0.997 	 7.112
0.0220530 	 1.1832656 	 11.9756 	 0.960 	 35.117
0.0428514 	 1.2259459 	 22.6096 	 0.998 	 47.966
0.0625821 	 1.3035307 	 33.1246 	 1.006 	 51.561
0.0812920 	 1.3960768 	 43.5961 	 1.009 	 52.648
0.0990920 	 1.4967513 	 54.1416 	 1.010 	 53.112
0.1160425 	 1.6042713 	 64.5787 	 1.012 	 53.354
0.1322189 	 1.7186392 	 75.0954 	 1.013 	 53.480
0.1476623 	 1.8360278 	 84.8719 	 1.014 	 53.581
0.1624154 	 1.9617224 	 95.7797 	 1.017 	 53.551
0.1765418 	 2.0919435 	 106.3718 	 1.019 	 53.548
0.1900799 	 2.2266920 	 116.9947 	 1.021 	 53.529
0.2030578 	 2.3655207 	 128.1369 	 1.023 	 53.502
0.2155161 	 2.5090519 	 137.4883 	 1.025 	 53.490
0.2274866 	 2.6571505 	 147.5763 	 1.027 	 53.486
0.2390004 	 2.8091399 	 157.6594 	 1.029 	 53.447
0.2500796 	 2.9661192 	 168.2158 	 1.031 	 53.447
0.2607561 	 3.1266758 	 178.1262 	 1.033 	 53.436
0.2710530 	 3.2917765 	 189.3122 	 1.035 	 53.429
0.2809812 	 3.4607551 	 198.5944 	 1.037 	 53.414
0.2905742 	 3.6343525 	 209.0749 	 1.038 	 53.398
0.2998401 	 3.8111333 	 218.6561 	 1.041 	 53.371
0.3088113 	 3.9938498 	 227.9659 	 1.042 	 53.372
0.3174842 	 4.1792719 	 239.0329 	 1.045 	 53.360
0.3258877 	 4.3694113 	 248.8161 	 1.046 	 53.350
0.3340253 	 4.5620869 	 259.1474 	 1.049 	 53.321
0.3419193 	 4.7615803 	 270.4879 	 1.050 	 53.325
0.3495774 	 4.9639725 	 282.7308 	 1.052 	 53.301
0.3570067 	 5.1694439 	 293.8151 	 1.054 	 53.286
0.3642240 	 5.3800752 	 303.8681 	 1.056 	 53.263
0.3712305 	 5.5945264 	 316.2271 	 1.058 	 53.260
0.3780436 	 5.8096156 	 323.5873 	 1.059 	 53.216
0.3846642 	 6.0312497 	 333.1681 	 1.062 	 53.218
0.3911090 	 6.2607113 	 341.3234 	 1.064 	 53.221
0.3973829 	 6.4906593 	 349.0569 	 1.066 	 53.219
0.4034897 	 6.7245571 	 361.6506 	 1.067 	 53.190
0.4094356 	 6.9632199 	 373.2954 	 1.069 	 53.189
0.4152259 	 7.2039409 	 384.4653 	 1.070 	 53.178
0.4208732 	 7.4482429 	 396.0672 	 1.072 	 53.164
0.4263808 	 7.6977901 	 405.1147 	 1.073 	 53.157
0.4317537 	 7.9495277 	 415.4954 	 1.075 	 53.118
0.4369978 	 8.2083028 	 425.2873 	 1.075 	 53.125
0.4421182 	 8.4683126 	 435.2741 	 1.077 	 53.081
0.4471217 	 8.7352390 	 442.8741 	 1.078 	 53.119
0.4520071 	 9.0027437 	 454.5870 	 1.079 	 53.095
0.4567822 	 9.2754258 	 465.0024 	 1.080 	 53.083
0.4614487 	 9.5503708 	 476.5088 	 1.081 	 53.041
0.4660111 	 9.8275551 	 488.6368 	 1.082 	 53.044
0.4704745 	 10.1118288 	 498.5028 	 1.083 	 53.029
0.4748385 	 10.4032693 	 507.4854 	 1.084 	 53.023
0.4791121 	 10.6888241 	 519.9282 	 1.085 	 53.001
0.4832925 	 10.9871028 	 533.0596 	 1.087 	 52.996
0.4873887 	 11.2804642 	 547.5467 	 1.087 	 52.987
0.4914009 	 11.5877293 	 557.8030 	 1.088 	 52.991
0.4953280 	 11.8904538 	 566.0500 	 1.089 	 52.959
0.4991766 	 12.1972338 	 575.5004 	 1.090 	 52.928
0.5029514 	 12.5146734 	 588.0109 	 1.091 	 52.933
0.5066502 	 12.8237711 	 599.0378 	 1.090 	 52.929
0.5102758 	 13.1534677 	 610.6373 	 1.091 	 52.935
0.5138308 	 13.4819050 	 623.0277 	 1.091 	 52.907
0.5173193 	 13.8066155 	 631.3778 	 1.091 	 52.904
0.5207410 	 14.1447659 	 645.5871 	 1.091 	 52.916
0.5240985 	 14.4782059 	 658.3141 	 1.091 	 52.889
0.5273935 	 14.8183385 	 673.6149 	 1.090 	 52.907
0.5306259 	 15.1661044 	 686.6021 	 1.091 	 52.887
0.5337966 	 15.5094620 	 700.2669 	 1.090 	 52.865
0.5369119 	 15.8623481 	 716.5670 	 1.091 	 52.858
0.5399746 	 16.2173668 	 734.1986 	 1.090 	 52.843
0.5429812 	 16.5749079 	 758.6873 	 1.089 	 52.828
0.5459357 	 16.9429052 	 787.1011 	 1.088 	 52.819
0.5488385 	 17.3073598 	 824.6166 	 1.088 	 52.822
0.5516900 	 17.6764950 	 867.1627 	 1.087 	 52.803
0.5544940 	 18.0524080 	 936.9264 	 1.085 	 52.795
0.5572504 	 18.4403665 	 1034.4336 	 1.086 	 52.804
0.5599570 	 18.8290643 	 1181.2994 	 1.085 	 52.801
0.5626195 	 19.2204653 	 1411.4748 	 1.084 	 52.784
0.5652386 	 19.6261285 	 1775.7586 	 1.083 	 52.768
0.5678086 	 20.0385190 	 2368.0390 	 1.082 	 52.794
0.5703377 	 20.4520059 	 3289.9246 	 1.080 	 52.768
0.5728229 	 20.8807704 	 4679.7330 	 1.080 	 52.748
0.5752640 	 21.3290960 	 6681.6985 	 1.079 	 52.726
0.5776604 	 21.8022969 	 9265.8089 	 1.078 	 52.722
0.5800114 	 22.2851478 	 12738.3452 	 1.078 	 52.693
0.5823178 	 22.7971617 	 16955.5524 	 1.077 	 52.677
0.5845783 	 23.3490015 	 21986.3568 	 1.078 	 52.667
0.5867897 	 23.9384089 	 27410.9688 	 1.077 	 52.643
0.5889513 	 24.5517173 	 33365.1574 	 1.077 	 52.609
0.5910654 	 25.2052145 	 39343.2170 	 1.078 	 52.607
0.5931281 	 25.8687274 	 45150.7882 	 1.077 	 52.568
0.5951412 	 26.5866450 	 51370.2851 	 1.076 	 52.551
0.5971048 	 27.3270450 	 57902.7774 	 1.076 	 52.539
0.5990182 	 28.0772157 	 64131.1922 	 1.074 	 52.473
0.6008845 	 28.8757763 	 69674.2450 	 1.073 	 52.470
0.6027041 	 29.6876528 	 75284.1487 	 1.069 	 52.446
0.6044759 	 30.5363006 	 82006.0908 	 1.068 	 52.417
0.6062027 	 31.4129531 	 88611.5795 	 1.068 	 52.426
0.6078846 	 32.3138839 	 97022.1004 	 1.065 	 52.400
0.6095219 	 33.2314239 	 106602.1443 	 1.064 	 52.383
0.6111172 	 34.1802583 	 118340.7498 	 1.063 	 52.354
0.6126704 	 35.1650218 	 130834.4860 	 1.064 	 52.358
0.6141824 	 36.1927691 	 146219.6262 	 1.065 	 52.356
0.6156535 	 37.2517636 	 163988.3960 	 1.068 	 52.340
0.6170854 	 38.3457266 	 184893.2523 	 1.071 	 52.316
0.6184790 	 39.4809444 	 206676.2346 	 1.076 	 52.337
0.6198337 	 40.6732488 	 230416.6101 	 1.080 	 52.350
0.6211514 	 41.8768628 	 256975.3909 	 1.084 	 52.362
0.6224307 	 43.1554597 	 285907.6632 	 1.090 	 52.387
0.6236736 	 44.4603279 	 318397.4403 	 1.095 	 52.385
0.6248831 	 45.7963347 	 353459.3755 	 1.101 	 52.407
0.6260584 	 47.2001524 	 390574.2166 	 1.106 	 52.426
0.6271991 	 48.6592241 	 427416.0330 	 1.109 	 52.478
0.6283083 	 50.1493789 	 461697.4220 	 1.112 	 52.533
0.6293852 	 51.6647920 	 498700.3416 	 1.115 	 52.535
