N=60 	 R=1000000 	 s=1 	 Save [density, Z, rho_t, like/unlike, events per sweep]
0.0002249 	 1.0008496 	 1.1026 	 0.996 	 7.112
0.0220540 	 1.1833707 	 12.0265 	 0.961 	 35.116
0.0428663 	 1.2260231 	 22.5873 	 0.998 	 48.000
0.0625937 	 1.3035400 	 32.8177 	 1.006 	 51.554
0.0813084 	 1.3961307 	 43.1930 	 1.009 	 52.653
0.0991126 	 1.4969721 	 53.6545 	 1.010 	 53.144
0.1160793 	 1.6044581 	 64.2612 	 1.011 	 53.346
0.1322549 	 1.7185658 	 75.3257 	 1.013 	 53.465
0.1476955 	 1.8368820 	 85.6341 	 1.015 	 53.590
0.1624542 	 1.9621859 	 95.8459 	 1.017 	 53.554
0.1765776 	 2.0919139 	 106.7855 	 1.019 	 53.527
0.1901075 	 2.2268719 	 116.9885 	 1.022 	 53.518
0.2030781 	 2.3660364 	 127.7420 	 1.023 	 53.499
0.2155338 	 2.5098228 	 137.6845 	 1.025 	 53.513
0.2275002 	 2.6571228 	 147.8370 	 1.028 	 53.478
0.2390080 	 2.8091507 	 157.9993 	 1.029 	 53.452
0.2500953 	 2.9659622 	 168.1802 	 1.031 	 53.434
0.2607739 	 3.1269869 	 178.1514 	 1.033 	 53.441
0.2710668 	 3.2916516 	 188.0240 	 1.035 	 53.411
0.2809948 	 3.4613640 	 198.9256 	 1.036 	 53.402
0.2905855 	 3.6350455 	 208.2133 	 1.039 	 53.401
0.2998547 	 3.8118447 	 219.7269 	 1.040 	 53.382
0.3088244 	 3.9931932 	 230.7473 	 1.042 	 53.369
0.3175034 	 4.1794686 	 240.2474 	 1.045 	 53.345
0.3259081 	 4.3693889 	 248.6568 	 1.046 	 53.339
0.3340409 	 4.5642713 	 259.8655 	 1.048 	 53.344
0.3419333 	 4.7625683 	 273.5160 	 1.051 	 53.333
0.3495798 	 4.9636837 	 283.5521 	 1.052 	 53.291
0.3570089 	 5.1699849 	 293.5946 	 1.055 	 53.307
0.3642206 	 5.3796954 	 303.0137 	 1.057 	 53.280
0.3712292 	 5.5927526 	 311.5646 	 1.058 	 53.255
0.3780378 	 5.8126048 	 318.7624 	 1.060 	 53.255
0.3846637 	 6.0342036 	 328.6010 	 1.062 	 53.243
0.3911079 	 6.2577952 	 339.2736 	 1.062 	 53.206
0.3973754 	 6.4865037 	 351.0789 	 1.065 	 53.194
0.4034812 	 6.7223916 	 358.8324 	 1.066 	 53.192
0.4094299 	 6.9612513 	 368.6087 	 1.068 	 53.188
0.4152261 	 7.2050725 	 378.4589 	 1.069 	 53.169
0.4208724 	 7.4477161 	 393.0890 	 1.071 	 53.136
0.4263784 	 7.6949192 	 405.9924 	 1.072 	 53.113
0.4317528 	 7.9513245 	 418.9611 	 1.073 	 53.125
0.4369986 	 8.2061391 	 427.1511 	 1.075 	 53.101
0.4421223 	 8.4665508 	 433.0184 	 1.076 	 53.093
0.4471277 	 8.7315084 	 440.9755 	 1.078 	 53.075
0.4520131 	 9.0000193 	 452.8203 	 1.079 	 53.064
0.4567880 	 9.2730808 	 464.1807 	 1.080 	 53.072
0.4614548 	 9.5503357 	 472.6511 	 1.081 	 53.055
0.4660211 	 9.8262394 	 486.4274 	 1.081 	 53.026
0.4704826 	 10.1114288 	 496.3071 	 1.083 	 53.023
0.4748506 	 10.4007391 	 511.0067 	 1.085 	 53.037
0.4791238 	 10.6933365 	 520.2627 	 1.085 	 53.023
0.4833041 	 10.9848077 	 536.8736 	 1.086 	 52.996
0.4873983 	 11.2867208 	 545.0499 	 1.086 	 52.989
0.4914083 	 11.5850581 	 561.5201 	 1.087 	 52.972
0.4953323 	 11.8889833 	 572.5737 	 1.088 	 52.943
0.4991794 	 12.2022578 	 586.1678 	 1.088 	 52.957
0.5029521 	 12.5124237 	 595.7438 	 1.089 	 52.938
0.5066448 	 12.8344764 	 606.3845 	 1.089 	 52.951
0.5102681 	 13.1536658 	 616.3870 	 1.089 	 52.921
0.5138196 	 13.4775675 	 623.9000 	 1.089 	 52.918
0.5173071 	 13.8084542 	 639.5413 	 1.089 	 52.913
0.5207285 	 14.1399378 	 657.2524 	 1.090 	 52.919
0.5240838 	 14.4770630 	 664.8594 	 1.091 	 52.896
0.5273760 	 14.8192932 	 679.4700 	 1.090 	 52.890
0.5306096 	 15.1596325 	 698.3125 	 1.091 	 52.844
0.5337833 	 15.5109925 	 714.4400 	 1.090 	 52.857
0.5368979 	 15.8661677 	 733.5786 	 1.091 	 52.852
0.5399581 	 16.2233323 	 749.7247 	 1.090 	 52.846
0.5429632 	 16.5796910 	 774.4469 	 1.091 	 52.840
0.5459150 	 16.9573620 	 800.0181 	 1.091 	 52.857
0.5488154 	 17.3109717 	 830.8933 	 1.091 	 52.821
0.5516672 	 17.6890527 	 891.3572 	 1.091 	 52.832
0.5544693 	 18.0548194 	 1020.8084 	 1.091 	 52.816
0.5572245 	 18.4187542 	 1265.6492 	 1.090 	 52.806
0.5599355 	 18.7906407 	 1825.0653 	 1.090 	 52.804
0.5626056 	 19.1657696 	 2962.4751 	 1.089 	 52.812
0.5652332 	 19.5237101 	 5792.7258 	 1.090 	 52.810
0.5678221 	 19.8753057 	 11633.6699 	 1.090 	 52.812
0.5703735 	 20.2377029 	 22880.3021 	 1.092 	 52.852
0.5728916 	 20.6024100 	 42375.2749 	 1.095 	 52.863
0.5753745 	 20.9786671 	 74771.1518 	 1.099 	 52.874
0.5778189 	 21.3676355 	 119802.8964 	 1.104 	 52.883
0.5802210 	 21.8241252 	 171967.2760 	 1.110 	 52.929
0.5825804 	 22.3095758 	 228853.4643 	 1.117 	 52.952
0.5848926 	 22.8497093 	 287433.3411 	 1.123 	 53.004
0.5871558 	 23.4249118 	 341385.5681 	 1.130 	 53.011
0.5893678 	 24.0273545 	 392603.2443 	 1.135 	 53.034
0.5915296 	 24.6784057 	 435180.0403 	 1.141 	 53.070
0.5936396 	 25.3568091 	 467452.4226 	 1.146 	 53.105
0.5956972 	 26.0716592 	 484194.7139 	 1.150 	 53.143
0.5977029 	 26.8030175 	 496842.9621 	 1.155 	 53.165
0.5996573 	 27.5670731 	 504888.3808 	 1.157 	 53.171
0.6015637 	 28.3591534 	 500095.4204 	 1.161 	 53.203
0.6034189 	 29.1823893 	 491278.7322 	 1.163 	 53.192
0.6052248 	 30.0342746 	 478031.1083 	 1.166 	 53.188
0.6069843 	 30.9257475 	 457560.7165 	 1.169 	 53.182
0.6086938 	 31.8473845 	 436117.3361 	 1.172 	 53.195
0.6103580 	 32.7654370 	 413828.5398 	 1.174 	 53.144
0.6119780 	 33.7338954 	 393931.5316 	 1.177 	 53.122
0.6135543 	 34.7223623 	 381229.5055 	 1.179 	 53.103
0.6150894 	 35.7388945 	 379800.5696 	 1.182 	 53.038
0.6165841 	 36.7494851 	 395090.7596 	 1.182 	 52.981
0.6180370 	 37.8204711 	 424321.9692 	 1.185 	 52.924
0.6194525 	 38.9503421 	 466640.7071 	 1.189 	 52.861
0.6208282 	 40.1014263 	 522459.6206 	 1.191 	 52.803
0.6221662 	 41.3447951 	 583089.1922 	 1.196 	 52.732
0.6234658 	 42.6716432 	 638756.8129 	 1.201 	 52.707
0.6247260 	 44.0209632 	 689307.3966 	 1.204 	 52.637
0.6259475 	 45.4683811 	 735454.4542 	 1.210 	 52.581
0.6271320 	 46.9884848 	 768192.2895 	 1.215 	 52.544
0.6282784 	 48.6209958 	 796039.6433 	 1.220 	 52.518
0.6293882 	 50.3060045 	 811555.5578 	 1.226 	 52.468
