N=60 	 R=1000000 	 s=1 	 Save [density, Z, rho_t, like/unlike, events per sweep]
0.0002253 	 1.0008510 	 1.1026 	 0.994 	 7.113
0.0220458 	 1.1833222 	 12.0053 	 0.961 	 35.101
0.0428481 	 1.2259914 	 22.7089 	 0.998 	 47.974
0.0625688 	 1.3033415 	 33.1050 	 1.005 	 51.552
0.0812722 	 1.3959173 	 43.4313 	 1.008 	 52.634
0.0990702 	 1.4966685 	 53.8213 	 1.010 	 53.147
0.1160273 	 1.6043750 	 64.7540 	 1.012 	 53.364
0.1321935 	 1.7181680 	 75.1333 	 1.013 	 53.471
0.1476332 	 1.8362835 	 85.7039 	 1.014 	 53.598
0.1623897 	 1.9617703 	 95.9553 	 1.016 	 53.575
0.1765219 	 2.0920064 	 105.8874 	 1.019 	 53.556
0.1900488 	 2.2262935 	 116.3273 	 1.021 	 53.529
0.2030311 	 2.3657284 	 126.1520 	 1.023 	 53.511
0.2154813 	 2.5087038 	 136.9651 	 1.025 	 53.481
0.2274493 	 2.6569382 	 146.8453 	 1.027 	 53.484
0.2389718 	 2.8092350 	 157.2110 	 1.030 	 53.474
0.2500587 	 2.9655113 	 167.7636 	 1.030 	 53.447
0.2607320 	 3.1269251 	 176.6956 	 1.033 	 53.444
0.2710315 	 3.2907164 	 187.8240 	 1.035 	 53.392
0.2809567 	 3.4598622 	 198.8469 	 1.036 	 53.402
0.2905508 	 3.6334345 	 209.2976 	 1.038 	 53.386
0.2998194 	 3.8115624 	 220.4271 	 1.041 	 53.385
0.3087902 	 3.9928304 	 231.1411 	 1.043 	 53.388
0.3174698 	 4.1790756 	 241.2691 	 1.045 	 53.369
0.3258728 	 4.3688388 	 250.0888 	 1.046 	 53.332
0.3340101 	 4.5627057 	 260.4716 	 1.048 	 53.308
0.3419086 	 4.7602630 	 269.4478 	 1.050 	 53.310
0.3495664 	 4.9633214 	 280.4485 	 1.052 	 53.308
0.3569941 	 5.1696423 	 291.8352 	 1.054 	 53.290
0.3642089 	 5.3780220 	 303.2990 	 1.056 	 53.237
0.3712179 	 5.5942867 	 313.4202 	 1.058 	 53.284
0.3780280 	 5.8122456 	 321.6781 	 1.060 	 53.248
0.3846435 	 6.0330513 	 333.1915 	 1.062 	 53.229
0.3910897 	 6.2601856 	 341.5348 	 1.063 	 53.232
0.3973604 	 6.4901659 	 353.4039 	 1.065 	 53.212
0.4034671 	 6.7214541 	 360.9601 	 1.067 	 53.192
0.4094171 	 6.9604181 	 371.7121 	 1.069 	 53.175
0.4152145 	 7.1994815 	 381.0558 	 1.070 	 53.155
0.4208628 	 7.4469915 	 393.1091 	 1.071 	 53.148
0.4263729 	 7.6944738 	 405.5024 	 1.074 	 53.133
0.4317500 	 7.9523773 	 418.6202 	 1.076 	 53.125
0.4369951 	 8.2087707 	 427.5422 	 1.076 	 53.115
0.4421168 	 8.4668768 	 439.0239 	 1.077 	 53.091
0.4471224 	 8.7334200 	 453.5194 	 1.078 	 53.085
0.4520073 	 9.0019351 	 463.2503 	 1.080 	 53.084
0.4567833 	 9.2723844 	 474.9738 	 1.080 	 53.072
0.4614509 	 9.5495925 	 487.1562 	 1.082 	 53.037
0.4660158 	 9.8303873 	 500.5728 	 1.083 	 53.042
0.4704783 	 10.1108271 	 513.5192 	 1.083 	 53.028
0.4748457 	 10.4007186 	 521.0557 	 1.085 	 53.037
0.4791180 	 10.6887691 	 529.6630 	 1.086 	 53.016
0.4833037 	 10.9834479 	 539.1701 	 1.087 	 52.997
0.4874016 	 11.2870888 	 549.6761 	 1.088 	 52.992
0.4914087 	 11.5826031 	 559.9550 	 1.087 	 52.963
0.4953365 	 11.8922559 	 572.0346 	 1.089 	 52.975
0.4991849 	 12.2022743 	 582.8719 	 1.089 	 52.966
0.5029578 	 12.5170570 	 594.8390 	 1.090 	 52.948
0.5066532 	 12.8364472 	 607.5842 	 1.090 	 52.921
0.5102784 	 13.1546113 	 616.3035 	 1.090 	 52.914
0.5138321 	 13.4809787 	 622.1765 	 1.090 	 52.908
0.5173172 	 13.8080723 	 636.5165 	 1.091 	 52.889
0.5207348 	 14.1466092 	 649.0067 	 1.092 	 52.879
0.5240880 	 14.4801816 	 666.6719 	 1.089 	 52.909
0.5273795 	 14.8216218 	 676.1565 	 1.091 	 52.867
0.5306121 	 15.1705287 	 692.9089 	 1.091 	 52.878
0.5337868 	 15.5172685 	 709.2236 	 1.091 	 52.868
0.5369026 	 15.8709946 	 727.9881 	 1.090 	 52.854
0.5399634 	 16.2211980 	 754.5093 	 1.089 	 52.866
0.5429679 	 16.5810168 	 780.4871 	 1.089 	 52.855
0.5459206 	 16.9484445 	 820.5958 	 1.087 	 52.843
0.5488231 	 17.3101121 	 874.7337 	 1.086 	 52.824
0.5516759 	 17.6803984 	 948.9147 	 1.085 	 52.819
0.5544799 	 18.0614073 	 1081.2673 	 1.083 	 52.818
0.5572354 	 18.4353997 	 1304.0793 	 1.082 	 52.804
0.5599440 	 18.8069458 	 1686.0929 	 1.081 	 52.794
0.5626093 	 19.1934537 	 2323.3534 	 1.082 	 52.776
0.5652321 	 19.5825511 	 3222.9455 	 1.082 	 52.791
0.5678108 	 19.9791625 	 4575.1944 	 1.081 	 52.777
0.5703466 	 20.3829276 	 6475.4925 	 1.083 	 52.776
0.5728398 	 20.7975033 	 8868.2242 	 1.082 	 52.764
0.5752919 	 21.2286110 	 11611.2787 	 1.083 	 52.758
0.5777028 	 21.6791431 	 14690.0465 	 1.083 	 52.737
0.5800695 	 22.1486900 	 18208.9690 	 1.083 	 52.756
0.5823942 	 22.6471727 	 22393.7700 	 1.085 	 52.769
0.5846723 	 23.1431024 	 27439.2261 	 1.086 	 52.734
0.5869056 	 23.6857000 	 33106.5556 	 1.087 	 52.738
0.5890948 	 24.2542094 	 39248.9298 	 1.088 	 52.729
0.5912357 	 24.8600294 	 45984.5113 	 1.090 	 52.743
0.5933297 	 25.4828838 	 53633.3063 	 1.093 	 52.757
0.5953768 	 26.1514431 	 61732.6152 	 1.095 	 52.741
0.5973776 	 26.8495308 	 69883.6018 	 1.099 	 52.734
0.5993287 	 27.5826084 	 78443.4457 	 1.102 	 52.717
0.6012319 	 28.3545310 	 88617.4399 	 1.107 	 52.738
0.6030868 	 29.1591079 	 99743.7503 	 1.114 	 52.700
0.6048934 	 29.9855078 	 113643.5429 	 1.120 	 52.674
0.6066529 	 30.8634499 	 129375.7849 	 1.127 	 52.648
0.6083659 	 31.7796100 	 147731.8260 	 1.135 	 52.632
0.6100333 	 32.7200982 	 169322.9429 	 1.144 	 52.584
0.6116537 	 33.7193219 	 193181.7664 	 1.152 	 52.573
0.6132297 	 34.7484423 	 218860.5169 	 1.160 	 52.558
0.6147615 	 35.8266316 	 248390.9392 	 1.168 	 52.502
0.6162478 	 36.9630181 	 278900.1943 	 1.178 	 52.496
0.6176922 	 38.1258230 	 311211.9083 	 1.187 	 52.417
0.6190934 	 39.3645685 	 341177.7378 	 1.196 	 52.396
0.6204526 	 40.6396862 	 367807.8233 	 1.205 	 52.348
0.6217699 	 41.9840175 	 395766.2069 	 1.213 	 52.318
0.6230467 	 43.3936281 	 417871.0963 	 1.220 	 52.283
0.6242831 	 44.8182246 	 439925.9607 	 1.226 	 52.232
0.6254807 	 46.3489675 	 451794.1558 	 1.232 	 52.230
0.6266414 	 47.8902743 	 462065.9336 	 1.240 	 52.176
0.6277652 	 49.5196968 	 461108.6305 	 1.242 	 52.151
0.6288544 	 51.1819138 	 456939.9598 	 1.246 	 52.121
0.6299081 	 52.8972694 	 447382.8055 	 1.248 	 52.084
