N=60 	 R=1000000 	 s=1 	 Save [density, Z, rho_t, like/unlike, events per sweep]
0.0002277 	 1.0008674 	 1.1026 	 0.994 	 7.114
0.0220842 	 1.1832024 	 12.0539 	 0.960 	 35.180
0.0428758 	 1.2260887 	 22.7371 	 0.998 	 47.972
0.0625946 	 1.3036266 	 33.1506 	 1.006 	 51.542
0.0812898 	 1.3961039 	 43.6727 	 1.008 	 52.669
0.0990960 	 1.4966192 	 54.2139 	 1.010 	 53.133
0.1160478 	 1.6045758 	 64.8275 	 1.012 	 53.372
0.1322237 	 1.7182759 	 75.4620 	 1.013 	 53.464
0.1476586 	 1.8362368 	 85.9709 	 1.014 	 53.586
0.1624263 	 1.9622581 	 96.5409 	 1.017 	 53.584
0.1765589 	 2.0923969 	 106.3455 	 1.019 	 53.550
0.1900845 	 2.2268665 	 116.7716 	 1.021 	 53.535
0.2030648 	 2.3658448 	 125.6302 	 1.023 	 53.502
0.2155304 	 2.5096400 	 135.6038 	 1.025 	 53.489
0.2275016 	 2.6575399 	 146.5366 	 1.027 	 53.470
0.2390213 	 2.8097409 	 157.3041 	 1.029 	 53.452
0.2501053 	 2.9664077 	 167.0805 	 1.031 	 53.445
0.2607730 	 3.1267183 	 177.2143 	 1.033 	 53.435
0.2710657 	 3.2930897 	 188.0577 	 1.034 	 53.442
0.2810032 	 3.4614363 	 198.8536 	 1.037 	 53.407
0.2905964 	 3.6347885 	 207.8559 	 1.038 	 53.378
0.2998659 	 3.8122570 	 218.3835 	 1.041 	 53.368
0.3088302 	 3.9945209 	 227.8818 	 1.043 	 53.377
0.3175080 	 4.1800881 	 237.9704 	 1.044 	 53.360
0.3259037 	 4.3699062 	 248.2568 	 1.046 	 53.333
0.3340451 	 4.5633775 	 257.2719 	 1.049 	 53.327
0.3419393 	 4.7619380 	 267.8740 	 1.050 	 53.318
0.3495912 	 4.9627932 	 276.9837 	 1.052 	 53.288
0.3570208 	 5.1691775 	 285.7298 	 1.054 	 53.281
0.3642372 	 5.3796954 	 294.4269 	 1.056 	 53.278
0.3712420 	 5.5937381 	 305.2961 	 1.058 	 53.250
0.3780504 	 5.8107605 	 315.1452 	 1.061 	 53.239
0.3846708 	 6.0346087 	 325.9503 	 1.061 	 53.229
0.3911162 	 6.2596243 	 335.0584 	 1.064 	 53.224
0.3973897 	 6.4917306 	 345.1483 	 1.066 	 53.221
0.4034924 	 6.7221278 	 354.6085 	 1.066 	 53.179
0.4094431 	 6.9612412 	 365.2038 	 1.069 	 53.177
0.4152383 	 7.2037504 	 374.6939 	 1.070 	 53.178
0.4208905 	 7.4470555 	 384.1104 	 1.071 	 53.137
0.4263975 	 7.6975989 	 393.0844 	 1.074 	 53.145
0.4317747 	 7.9516326 	 404.0597 	 1.073 	 53.123
0.4370227 	 8.2083891 	 417.3509 	 1.075 	 53.115
0.4421379 	 8.4690678 	 429.4060 	 1.077 	 53.095
0.4471382 	 8.7332661 	 436.9320 	 1.079 	 53.078
0.4520240 	 9.0009314 	 448.6026 	 1.080 	 53.084
0.4567979 	 9.2727695 	 456.9262 	 1.080 	 53.042
0.4614669 	 9.5522188 	 469.0278 	 1.081 	 53.065
0.4660317 	 9.8317987 	 482.4226 	 1.082 	 53.052
0.4704940 	 10.1140744 	 493.6812 	 1.083 	 53.034
0.4748573 	 10.4056556 	 498.9448 	 1.084 	 53.032
0.4791313 	 10.6920349 	 510.9031 	 1.086 	 53.003
0.4833120 	 10.9865723 	 521.8361 	 1.087 	 52.976
0.4874089 	 11.2821349 	 532.2156 	 1.087 	 52.967
0.4914175 	 11.5836247 	 544.1041 	 1.088 	 52.983
0.4953452 	 11.8950139 	 557.1940 	 1.088 	 52.976
0.4991936 	 12.2017227 	 564.3716 	 1.088 	 52.945
0.5029646 	 12.5155871 	 578.4212 	 1.090 	 52.939
0.5066610 	 12.8330496 	 585.6681 	 1.090 	 52.931
0.5102847 	 13.1541417 	 599.1620 	 1.091 	 52.910
0.5138384 	 13.4767505 	 607.6013 	 1.091 	 52.900
0.5173245 	 13.8135846 	 622.7061 	 1.092 	 52.926
0.5207446 	 14.1411869 	 641.1794 	 1.091 	 52.907
0.5241010 	 14.4758467 	 651.7628 	 1.090 	 52.897
0.5273969 	 14.8141261 	 664.7654 	 1.092 	 52.864
0.5306295 	 15.1655016 	 679.2950 	 1.092 	 52.884
0.5338046 	 15.5095820 	 689.7421 	 1.091 	 52.847
0.5369200 	 15.8643100 	 702.9247 	 1.090 	 52.844
0.5399798 	 16.2243845 	 723.7713 	 1.090 	 52.841
0.5429853 	 16.5814189 	 744.3797 	 1.090 	 52.846
0.5459377 	 16.9535551 	 779.9230 	 1.090 	 52.858
0.5488403 	 17.3171798 	 818.0870 	 1.091 	 52.841
0.5516902 	 17.6820281 	 874.8660 	 1.090 	 52.828
0.5544928 	 18.0580855 	 960.0567 	 1.089 	 52.809
0.5572481 	 18.4392483 	 1090.7946 	 1.087 	 52.823
0.5599577 	 18.8280013 	 1286.4395 	 1.086 	 52.797
0.5626222 	 19.2063499 	 1658.5876 	 1.085 	 52.790
0.5652414 	 19.6079219 	 2345.0022 	 1.081 	 52.792
0.5678185 	 20.0012153 	 3583.1638 	 1.077 	 52.773
0.5703529 	 20.4045525 	 5908.3237 	 1.073 	 52.772
0.5728465 	 20.7878645 	 10729.3275 	 1.067 	 52.753
0.5753008 	 21.2001625 	 19569.6428 	 1.059 	 52.737
0.5777155 	 21.6080290 	 33678.7928 	 1.051 	 52.727
0.5800931 	 22.0403750 	 55329.8134 	 1.040 	 52.705
0.5824299 	 22.4945467 	 85850.7879 	 1.029 	 52.696
0.5847246 	 22.9911821 	 124559.7666 	 1.020 	 52.679
0.5869745 	 23.5108570 	 170729.6102 	 1.010 	 52.662
0.5891800 	 24.0986387 	 221954.6374 	 1.002 	 52.644
0.5913352 	 24.7246006 	 274696.1950 	 0.995 	 52.635
0.5934400 	 25.3950629 	 331040.5891 	 0.987 	 52.631
0.5954937 	 26.1153892 	 385480.8796 	 0.982 	 52.619
0.5974950 	 26.8655954 	 439229.5510 	 0.976 	 52.615
0.5994437 	 27.6615997 	 490786.5437 	 0.971 	 52.615
0.6013414 	 28.4887591 	 544225.0783 	 0.965 	 52.592
0.6031874 	 29.3438359 	 595097.9249 	 0.961 	 52.564
0.6049798 	 30.2438059 	 643326.0602 	 0.955 	 52.590
0.6067231 	 31.1437924 	 689776.2291 	 0.951 	 52.573
0.6084192 	 32.0911828 	 730165.7354 	 0.948 	 52.595
0.6100677 	 33.0709873 	 760515.8388 	 0.945 	 52.573
0.6116715 	 34.0729139 	 786676.8705 	 0.943 	 52.590
0.6132303 	 35.1026524 	 802581.2631 	 0.942 	 52.588
0.6147456 	 36.1560608 	 813208.4470 	 0.941 	 52.589
0.6162195 	 37.2249994 	 819691.6707 	 0.942 	 52.596
0.6176539 	 38.3295790 	 816164.4175 	 0.944 	 52.588
0.6190481 	 39.4594585 	 805710.4164 	 0.945 	 52.616
0.6204055 	 40.6204699 	 795459.6801 	 0.948 	 52.599
0.6217265 	 41.8039927 	 781521.7814 	 0.950 	 52.603
0.6230108 	 43.0232208 	 763772.5706 	 0.954 	 52.611
0.6242607 	 44.2870171 	 746925.9789 	 0.957 	 52.611
0.6254763 	 45.6123051 	 727479.4165 	 0.961 	 52.625
0.6266584 	 46.9646865 	 705234.5904 	 0.964 	 52.624
0.6278060 	 48.3740951 	 678478.8088 	 0.968 	 52.605
0.6289218 	 49.8634140 	 652590.1536 	 0.971 	 52.608
0.6300063 	 51.4067743 	 629164.8640 	 0.975 	 52.594
