N=60 	 R=1000000 	 s=1 	 Save [density, Z, rho_t, like/unlike, events per sweep]
0.0002259 	 1.0008507 	 1.1027 	 0.987 	 7.112
0.0220569 	 1.1832056 	 12.0212 	 0.961 	 35.148
0.0428625 	 1.2260248 	 22.6050 	 0.998 	 47.962
0.0625731 	 1.3034256 	 33.3070 	 1.007 	 51.529
0.0812971 	 1.3960797 	 43.7063 	 1.009 	 52.635
0.0990982 	 1.4968897 	 54.0841 	 1.009 	 53.154
0.1160482 	 1.6043356 	 64.5079 	 1.012 	 53.351
0.1322081 	 1.7180615 	 74.8413 	 1.013 	 53.466
0.1476588 	 1.8366384 	 85.2986 	 1.014 	 53.591
0.1624243 	 1.9618523 	 95.4483 	 1.016 	 53.571
0.1765377 	 2.0920279 	 105.6030 	 1.019 	 53.540
0.1900685 	 2.2265766 	 115.6103 	 1.022 	 53.539
0.2030424 	 2.3654353 	 126.7206 	 1.023 	 53.507
0.2154977 	 2.5092422 	 137.7283 	 1.025 	 53.510
0.2274716 	 2.6567300 	 148.1564 	 1.027 	 53.470
0.2389829 	 2.8091782 	 158.1514 	 1.029 	 53.450
0.2500641 	 2.9653215 	 168.6849 	 1.031 	 53.436
0.2607512 	 3.1268279 	 180.5571 	 1.033 	 53.429
0.2710537 	 3.2917905 	 191.4377 	 1.035 	 53.430
0.2809825 	 3.4606369 	 202.2231 	 1.037 	 53.424
0.2905741 	 3.6340156 	 214.7484 	 1.039 	 53.377
0.2998413 	 3.8125904 	 224.8865 	 1.041 	 53.405
0.3088084 	 3.9941955 	 233.4820 	 1.043 	 53.376
0.3174843 	 4.1787295 	 242.6203 	 1.045 	 53.345
0.3258831 	 4.3686195 	 252.6674 	 1.046 	 53.347
0.3340218 	 4.5624375 	 263.8326 	 1.048 	 53.309
0.3419118 	 4.7617462 	 274.4042 	 1.050 	 53.327
0.3495672 	 4.9614250 	 285.0348 	 1.053 	 53.269
0.3569947 	 5.1685472 	 294.9149 	 1.054 	 53.278
0.3642088 	 5.3793946 	 305.7979 	 1.056 	 53.278
0.3712141 	 5.5928113 	 316.7635 	 1.058 	 53.263
0.3780261 	 5.8104282 	 326.8820 	 1.061 	 53.245
0.3846525 	 6.0338108 	 337.6125 	 1.062 	 53.233
0.3910987 	 6.2601092 	 349.4200 	 1.064 	 53.218
0.3973727 	 6.4871561 	 360.0621 	 1.065 	 53.181
0.4034756 	 6.7223977 	 369.4784 	 1.067 	 53.200
0.4094241 	 6.9622146 	 381.1337 	 1.069 	 53.191
0.4152195 	 7.2016335 	 388.6326 	 1.071 	 53.152
0.4208729 	 7.4516338 	 399.6421 	 1.072 	 53.175
0.4263841 	 7.6950194 	 408.0617 	 1.073 	 53.112
0.4317594 	 7.9504200 	 418.3742 	 1.075 	 53.115
0.4370086 	 8.2072132 	 428.1875 	 1.076 	 53.121
0.4421285 	 8.4698521 	 439.2501 	 1.077 	 53.106
0.4471315 	 8.7321767 	 449.1970 	 1.078 	 53.081
0.4520178 	 9.0028610 	 458.7868 	 1.080 	 53.103
0.4567919 	 9.2729948 	 469.5734 	 1.080 	 53.057
0.4614619 	 9.5502015 	 479.8900 	 1.081 	 53.066
0.4660285 	 9.8302864 	 489.4407 	 1.083 	 53.046
0.4704922 	 10.1130389 	 501.6991 	 1.082 	 53.036
0.4748584 	 10.4007916 	 511.7185 	 1.085 	 53.023
0.4791311 	 10.6905435 	 518.9674 	 1.085 	 53.006
0.4833099 	 10.9837321 	 530.5887 	 1.085 	 52.997
0.4874087 	 11.2843987 	 543.0440 	 1.086 	 52.985
0.4914174 	 11.5848719 	 554.3903 	 1.088 	 52.972
0.4953447 	 11.8963877 	 562.7416 	 1.088 	 52.968
0.4991909 	 12.2034425 	 571.2981 	 1.089 	 52.943
0.5029617 	 12.5180965 	 581.7033 	 1.090 	 52.952
0.5066614 	 12.8358255 	 595.3316 	 1.090 	 52.933
0.5102859 	 13.1481404 	 609.7064 	 1.091 	 52.910
0.5138410 	 13.4794785 	 619.6692 	 1.090 	 52.903
0.5173251 	 13.8054318 	 629.6123 	 1.090 	 52.891
0.5207443 	 14.1424965 	 643.0806 	 1.090 	 52.904
0.5241007 	 14.4803176 	 663.9886 	 1.090 	 52.882
0.5273946 	 14.8174552 	 680.2826 	 1.091 	 52.868
0.5306275 	 15.1598509 	 692.2605 	 1.090 	 52.871
0.5338019 	 15.5104779 	 708.0415 	 1.090 	 52.881
0.5369210 	 15.8553434 	 722.7475 	 1.089 	 52.867
0.5399824 	 16.2121365 	 738.2859 	 1.090 	 52.829
0.5429890 	 16.5756491 	 759.2257 	 1.090 	 52.824
0.5459424 	 16.9335622 	 791.5258 	 1.090 	 52.835
0.5488451 	 17.2994203 	 829.3192 	 1.089 	 52.828
0.5516988 	 17.6664800 	 888.4982 	 1.090 	 52.816
0.5545048 	 18.0448389 	 971.2519 	 1.090 	 52.816
0.5572639 	 18.4201140 	 1101.8978 	 1.087 	 52.823
0.5599768 	 18.8008881 	 1304.2283 	 1.086 	 52.790
0.5626417 	 19.1861595 	 1642.5519 	 1.085 	 52.791
0.5652640 	 19.5715182 	 2186.4197 	 1.082 	 52.802
0.5678435 	 19.9739827 	 3106.3685 	 1.080 	 52.810
0.5703802 	 20.3725420 	 4785.5784 	 1.077 	 52.765
0.5728751 	 20.7909417 	 7539.5327 	 1.073 	 52.804
0.5753289 	 21.2075755 	 12098.1091 	 1.069 	 52.804
0.5777412 	 21.6458821 	 19608.5233 	 1.064 	 52.824
0.5801122 	 22.0918726 	 30522.9266 	 1.060 	 52.802
0.5824399 	 22.5748650 	 46658.5583 	 1.056 	 52.838
0.5847276 	 23.0677557 	 68812.3611 	 1.052 	 52.842
0.5869709 	 23.6035990 	 97248.2981 	 1.048 	 52.882
0.5891680 	 24.1619555 	 131430.1560 	 1.046 	 52.888
0.5913191 	 24.7751272 	 169382.3905 	 1.045 	 52.935
0.5934217 	 25.4131716 	 208963.0029 	 1.044 	 52.938
0.5954747 	 26.0918428 	 246317.6751 	 1.043 	 52.971
0.5974774 	 26.8257287 	 281478.8135 	 1.044 	 52.991
0.5994292 	 27.5953465 	 309753.0836 	 1.044 	 52.991
0.6013299 	 28.4090315 	 330951.0893 	 1.045 	 52.999
0.6031781 	 29.2766835 	 349288.2582 	 1.047 	 53.031
0.6049762 	 30.1738368 	 363394.4927 	 1.049 	 53.029
0.6067236 	 31.0995252 	 363241.1985 	 1.051 	 53.031
0.6084235 	 32.0719107 	 358682.5554 	 1.053 	 53.022
0.6100731 	 33.0645888 	 349779.8664 	 1.056 	 53.060
0.6116763 	 34.0977334 	 338495.5560 	 1.058 	 53.039
0.6132341 	 35.1542465 	 324840.1502 	 1.061 	 53.015
0.6147480 	 36.2518138 	 310676.0520 	 1.062 	 53.047
0.6162181 	 37.3589844 	 299992.3265 	 1.064 	 53.007
0.6176462 	 38.4919642 	 295031.6602 	 1.066 	 53.016
0.6190349 	 39.6398701 	 295255.9639 	 1.068 	 52.992
0.6203851 	 40.8413781 	 304721.7884 	 1.071 	 52.994
0.6216986 	 42.0240150 	 321153.0715 	 1.074 	 52.984
0.6229759 	 43.2419275 	 344168.9926 	 1.078 	 52.978
0.6242194 	 44.5140690 	 367625.9488 	 1.082 	 52.975
0.6254287 	 45.7719210 	 395133.9718 	 1.089 	 52.971
0.6266065 	 47.1164623 	 412941.2443 	 1.097 	 52.996
0.6277526 	 48.4464824 	 425449.0411 	 1.104 	 52.949
0.6288678 	 49.8622875 	 431155.0257 	 1.113 	 52.954
0.6299524 	 51.3231678 	 428306.1361 	 1.123 	 52.934
