N=60 	 R=1000000 	 s=1 	 Save [density, Z, rho_t, like/unlike, events per sweep]
0.0002246 	 1.0008481 	 1.1026 	 0.985 	 7.112
0.0220615 	 1.1831575 	 12.0399 	 0.961 	 35.151
0.0428463 	 1.2259923 	 22.5738 	 0.998 	 47.982
0.0625642 	 1.3035465 	 33.0737 	 1.005 	 51.572
0.0812804 	 1.3960903 	 43.4348 	 1.008 	 52.664
0.0990911 	 1.4967197 	 54.2244 	 1.009 	 53.119
0.1160524 	 1.6043775 	 65.3955 	 1.012 	 53.366
0.1322253 	 1.7182459 	 75.7831 	 1.013 	 53.457
0.1476557 	 1.8364251 	 86.3796 	 1.014 	 53.606
0.1624160 	 1.9616634 	 96.5661 	 1.017 	 53.567
0.1765483 	 2.0919507 	 107.0703 	 1.019 	 53.542
0.1900844 	 2.2264913 	 117.1492 	 1.021 	 53.519
0.2030557 	 2.3657030 	 127.9699 	 1.023 	 53.521
0.2155090 	 2.5089797 	 139.0258 	 1.025 	 53.485
0.2274757 	 2.6569888 	 148.9747 	 1.027 	 53.496
0.2389871 	 2.8096059 	 161.0453 	 1.029 	 53.487
0.2500707 	 2.9654603 	 171.4469 	 1.031 	 53.451
0.2607531 	 3.1264426 	 181.9733 	 1.032 	 53.422
0.2710496 	 3.2917041 	 191.3567 	 1.034 	 53.418
0.2809851 	 3.4602899 	 201.1367 	 1.037 	 53.398
0.2905808 	 3.6338530 	 211.4353 	 1.039 	 53.385
0.2998575 	 3.8121559 	 221.8681 	 1.041 	 53.373
0.3088198 	 3.9940751 	 233.4974 	 1.042 	 53.365
0.3174909 	 4.1808130 	 243.1968 	 1.045 	 53.373
0.3258904 	 4.3699978 	 255.5877 	 1.047 	 53.343
0.3340315 	 4.5645187 	 264.7412 	 1.048 	 53.352
0.3419210 	 4.7618578 	 276.1989 	 1.050 	 53.323
0.3495773 	 4.9641561 	 284.3190 	 1.052 	 53.311
0.3570027 	 5.1702595 	 295.9719 	 1.055 	 53.295
0.3642198 	 5.3794290 	 307.1758 	 1.056 	 53.264
0.3712250 	 5.5959818 	 317.7116 	 1.058 	 53.264
0.3780362 	 5.8112666 	 325.4415 	 1.059 	 53.249
0.3846530 	 6.0328359 	 336.5243 	 1.062 	 53.228
0.3910962 	 6.2605281 	 347.3261 	 1.063 	 53.240
0.3973705 	 6.4895256 	 355.9367 	 1.064 	 53.215
0.4034808 	 6.7221098 	 366.3861 	 1.066 	 53.181
0.4094268 	 6.9605754 	 376.8170 	 1.068 	 53.194
0.4152228 	 7.1994477 	 388.4328 	 1.070 	 53.151
0.4208749 	 7.4472422 	 399.8612 	 1.071 	 53.153
0.4263847 	 7.6975966 	 409.8263 	 1.074 	 53.145
0.4317671 	 7.9549447 	 421.4357 	 1.074 	 53.143
0.4370138 	 8.2082939 	 433.1203 	 1.076 	 53.113
0.4421384 	 8.4700415 	 441.6894 	 1.077 	 53.097
0.4471429 	 8.7362646 	 452.2742 	 1.078 	 53.073
0.4520287 	 9.0041751 	 465.0617 	 1.079 	 53.086
0.4568032 	 9.2741309 	 476.7679 	 1.080 	 53.057
0.4614722 	 9.5514167 	 488.4199 	 1.082 	 53.053
0.4660325 	 9.8271675 	 498.4133 	 1.083 	 53.029
0.4704986 	 10.1166514 	 508.8371 	 1.084 	 53.029
0.4748679 	 10.4030534 	 518.8193 	 1.085 	 53.037
0.4791387 	 10.6857876 	 528.6942 	 1.086 	 52.974
0.4833231 	 10.9797740 	 538.7836 	 1.086 	 52.970
0.4874173 	 11.2835237 	 548.4939 	 1.086 	 52.979
0.4914264 	 11.5841203 	 558.1369 	 1.087 	 52.970
0.4953542 	 11.8908161 	 569.0987 	 1.088 	 52.974
0.4992022 	 12.2000953 	 582.3106 	 1.088 	 52.953
0.5029759 	 12.5179055 	 591.0762 	 1.089 	 52.957
0.5066742 	 12.8346927 	 601.3681 	 1.090 	 52.923
0.5102994 	 13.1580191 	 610.1137 	 1.090 	 52.930
0.5138525 	 13.4808545 	 619.0332 	 1.091 	 52.930
0.5173367 	 13.8095808 	 632.1020 	 1.090 	 52.907
0.5207541 	 14.1405300 	 643.3552 	 1.091 	 52.887
0.5241115 	 14.4793345 	 660.8444 	 1.091 	 52.889
0.5274077 	 14.8202461 	 672.9767 	 1.090 	 52.901
0.5306399 	 15.1652611 	 690.4657 	 1.091 	 52.882
0.5338154 	 15.5112875 	 707.7275 	 1.091 	 52.859
0.5369316 	 15.8635676 	 723.6768 	 1.091 	 52.845
0.5399905 	 16.2165026 	 745.4924 	 1.090 	 52.849
0.5429952 	 16.5864498 	 768.0787 	 1.090 	 52.850
0.5459488 	 16.9421443 	 805.2130 	 1.088 	 52.813
0.5488498 	 17.3235614 	 856.4151 	 1.087 	 52.828
0.5517007 	 17.6920617 	 916.3014 	 1.087 	 52.820
0.5545030 	 18.0638149 	 1022.4982 	 1.085 	 52.821
0.5572571 	 18.4527992 	 1182.7528 	 1.085 	 52.809
0.5599652 	 18.8354229 	 1459.0508 	 1.085 	 52.806
0.5626254 	 19.2250677 	 1921.1839 	 1.083 	 52.802
0.5652437 	 19.6088263 	 2731.2734 	 1.082 	 52.783
0.5678185 	 20.0041887 	 4171.3687 	 1.081 	 52.788
0.5703507 	 20.4012378 	 6730.0663 	 1.078 	 52.774
0.5728425 	 20.8143592 	 11036.7509 	 1.077 	 52.807
0.5752924 	 21.2358924 	 17793.1495 	 1.076 	 52.826
0.5777028 	 21.6524530 	 28386.1941 	 1.076 	 52.818
0.5800738 	 22.0907397 	 44483.9577 	 1.077 	 52.848
0.5824038 	 22.5615537 	 66162.4420 	 1.080 	 52.862
0.5846924 	 23.0523218 	 93021.8114 	 1.083 	 52.874
0.5869376 	 23.5777904 	 126706.7927 	 1.090 	 52.920
0.5891376 	 24.1482633 	 164322.2890 	 1.097 	 52.951
0.5912904 	 24.7442724 	 205627.0384 	 1.106 	 52.950
0.5933940 	 25.3807361 	 251792.6779 	 1.115 	 52.967
0.5954489 	 26.0549641 	 296222.1157 	 1.125 	 52.984
0.5974569 	 26.7812591 	 338863.8041 	 1.133 	 53.010
0.5994144 	 27.5440188 	 379412.7268 	 1.143 	 53.041
0.6013191 	 28.3344644 	 416608.5123 	 1.152 	 53.012
0.6031749 	 29.1746969 	 453193.0228 	 1.161 	 53.051
0.6049801 	 30.0178127 	 485454.9085 	 1.168 	 53.018
0.6067373 	 30.9282575 	 519348.7499 	 1.177 	 53.047
0.6084477 	 31.8412292 	 549170.9868 	 1.184 	 53.047
0.6101112 	 32.7913448 	 575778.9171 	 1.191 	 53.027
0.6117277 	 33.7874572 	 598859.1318 	 1.198 	 53.039
0.6133017 	 34.8261031 	 621055.5454 	 1.203 	 53.053
0.6148305 	 35.8857218 	 640461.5173 	 1.210 	 53.056
0.6163173 	 36.9661702 	 653370.1620 	 1.215 	 53.028
0.6177602 	 38.1191621 	 655356.6353 	 1.218 	 53.039
0.6191623 	 39.3112210 	 653372.6911 	 1.221 	 53.047
0.6205246 	 40.5353491 	 639644.6180 	 1.222 	 53.033
0.6218474 	 41.7988285 	 613614.3007 	 1.220 	 53.071
0.6231331 	 43.0356813 	 577901.9975 	 1.214 	 53.033
0.6243825 	 44.2781578 	 536510.5848 	 1.206 	 53.000
0.6256002 	 45.5046633 	 498992.7660 	 1.192 	 53.032
0.6267870 	 46.7159976 	 480316.0511 	 1.175 	 53.080
0.6279467 	 47.8325820 	 496054.6360 	 1.155 	 53.055
0.6290805 	 48.9792018 	 551498.7710 	 1.134 	 53.084
