N=60 	 R=1000000 	 s=1 	 Save [density, Z, rho_t, like/unlike, events per sweep]
0.0002262 	 1.0008536 	 1.1026 	 0.980 	 7.113
0.0220627 	 1.1832707 	 12.0042 	 0.961 	 35.148
0.0428595 	 1.2260218 	 22.6518 	 0.997 	 47.989
0.0625819 	 1.3036147 	 33.3286 	 1.006 	 51.561
0.0813069 	 1.3962188 	 43.8043 	 1.009 	 52.650
0.0990920 	 1.4966793 	 54.5509 	 1.010 	 53.141
0.1160456 	 1.6044376 	 64.7743 	 1.011 	 53.356
0.1322129 	 1.7182808 	 75.1417 	 1.014 	 53.480
0.1476470 	 1.8363441 	 85.9379 	 1.014 	 53.589
0.1624087 	 1.9621808 	 96.7488 	 1.016 	 53.581
0.1765310 	 2.0920457 	 106.7234 	 1.019 	 53.562
0.1900567 	 2.2263504 	 116.8236 	 1.021 	 53.528
0.2030311 	 2.3653804 	 127.0924 	 1.023 	 53.504
0.2154897 	 2.5090721 	 137.7125 	 1.025 	 53.512
0.2274545 	 2.6564877 	 148.0952 	 1.027 	 53.483
0.2389580 	 2.8083779 	 158.5778 	 1.029 	 53.446
0.2500493 	 2.9652176 	 168.5353 	 1.031 	 53.443
0.2607246 	 3.1261033 	 180.0927 	 1.032 	 53.433
0.2710257 	 3.2909971 	 189.2763 	 1.035 	 53.421
0.2809580 	 3.4608044 	 199.5003 	 1.037 	 53.408
0.2905480 	 3.6340879 	 209.9018 	 1.039 	 53.400
0.2998192 	 3.8105716 	 220.0318 	 1.041 	 53.379
0.3087867 	 3.9920620 	 230.0507 	 1.043 	 53.335
0.3174654 	 4.1788062 	 240.6692 	 1.044 	 53.368
0.3258716 	 4.3693212 	 252.4920 	 1.046 	 53.348
0.3340156 	 4.5630974 	 262.0816 	 1.048 	 53.337
0.3419069 	 4.7607507 	 273.2835 	 1.050 	 53.307
0.3495610 	 4.9614357 	 282.2454 	 1.052 	 53.294
0.3569875 	 5.1703849 	 292.8684 	 1.054 	 53.307
0.3642038 	 5.3798528 	 300.9655 	 1.055 	 53.292
0.3712160 	 5.5924026 	 313.7257 	 1.058 	 53.248
0.3780349 	 5.8110029 	 322.5332 	 1.060 	 53.254
0.3846619 	 6.0334237 	 332.0764 	 1.062 	 53.216
0.3911060 	 6.2600527 	 342.9941 	 1.064 	 53.218
0.3973793 	 6.4902977 	 352.2420 	 1.066 	 53.192
0.4034855 	 6.7247851 	 364.1661 	 1.066 	 53.213
0.4094322 	 6.9617262 	 373.3742 	 1.068 	 53.182
0.4152269 	 7.2023421 	 382.9874 	 1.070 	 53.165
0.4208785 	 7.4498730 	 395.8789 	 1.072 	 53.157
0.4263897 	 7.6973824 	 404.8506 	 1.073 	 53.137
0.4317651 	 7.9505330 	 413.1308 	 1.075 	 53.134
0.4370119 	 8.2070091 	 425.2181 	 1.076 	 53.095
0.4421289 	 8.4696413 	 434.2559 	 1.078 	 53.105
0.4471324 	 8.7342477 	 446.2049 	 1.078 	 53.091
0.4520167 	 9.0009795 	 457.5973 	 1.080 	 53.075
0.4567923 	 9.2722520 	 468.0932 	 1.080 	 53.061
0.4614577 	 9.5496742 	 477.4860 	 1.081 	 53.059
0.4660197 	 9.8275698 	 488.1556 	 1.082 	 53.026
0.4704866 	 10.1109015 	 498.6108 	 1.083 	 53.026
0.4748512 	 10.4024755 	 510.5736 	 1.084 	 53.039
0.4791247 	 10.6920830 	 520.4890 	 1.086 	 53.015
0.4833032 	 10.9887830 	 532.5185 	 1.086 	 52.993
0.4873982 	 11.2828515 	 540.8000 	 1.088 	 52.983
0.4914105 	 11.5836895 	 551.3541 	 1.087 	 52.976
0.4953350 	 11.8923942 	 563.9550 	 1.089 	 52.963
0.4991842 	 12.1986038 	 576.8344 	 1.088 	 52.929
0.5029540 	 12.5144333 	 585.5216 	 1.088 	 52.948
0.5066486 	 12.8310343 	 599.9906 	 1.088 	 52.944
0.5102724 	 13.1529998 	 608.3846 	 1.089 	 52.927
0.5138270 	 13.4725436 	 623.2330 	 1.089 	 52.898
0.5173154 	 13.8091400 	 639.4450 	 1.090 	 52.916
0.5207371 	 14.1382135 	 656.6371 	 1.091 	 52.904
0.5240940 	 14.4752423 	 667.0867 	 1.091 	 52.887
0.5273879 	 14.8203239 	 675.2893 	 1.091 	 52.874
0.5306202 	 15.1658632 	 695.0736 	 1.091 	 52.867
0.5337935 	 15.5072507 	 710.2716 	 1.092 	 52.863
0.5369086 	 15.8587723 	 731.0717 	 1.092 	 52.860
0.5399675 	 16.2171496 	 753.1419 	 1.091 	 52.868
0.5429747 	 16.5738162 	 780.9367 	 1.090 	 52.828
0.5459293 	 16.9392771 	 819.9568 	 1.088 	 52.827
0.5488322 	 17.3037420 	 869.0103 	 1.088 	 52.821
0.5516866 	 17.6773270 	 942.0293 	 1.085 	 52.829
0.5544912 	 18.0513882 	 1058.6967 	 1.084 	 52.810
0.5572491 	 18.4258638 	 1218.0129 	 1.083 	 52.811
0.5599602 	 18.8006116 	 1501.1559 	 1.079 	 52.794
0.5626249 	 19.1975504 	 1973.8851 	 1.077 	 52.791
0.5652447 	 19.5885998 	 2787.8383 	 1.074 	 52.791
0.5678230 	 19.9847638 	 4042.5740 	 1.071 	 52.772
0.5703578 	 20.3893855 	 5974.9089 	 1.068 	 52.764
0.5728507 	 20.8156690 	 8859.6881 	 1.065 	 52.752
0.5753006 	 21.2506124 	 12747.7332 	 1.062 	 52.731
0.5777077 	 21.7179777 	 17816.6306 	 1.058 	 52.703
0.5800704 	 22.1875622 	 23774.8786 	 1.057 	 52.675
0.5823858 	 22.7196756 	 31298.2115 	 1.056 	 52.677
0.5846544 	 23.2624626 	 39724.0069 	 1.057 	 52.646
0.5868754 	 23.8326677 	 47939.2527 	 1.056 	 52.609
0.5890496 	 24.4474122 	 55978.8077 	 1.056 	 52.593
0.5911723 	 25.0886885 	 62361.2566 	 1.057 	 52.565
0.5932443 	 25.7606217 	 68363.0513 	 1.058 	 52.552
0.5952688 	 26.4605123 	 73090.2793 	 1.060 	 52.528
0.5972424 	 27.2025728 	 77430.7887 	 1.062 	 52.506
0.5991663 	 27.9498310 	 80932.5955 	 1.063 	 52.515
0.6010425 	 28.7436926 	 84505.9667 	 1.063 	 52.504
0.6028687 	 29.5589627 	 88670.7501 	 1.063 	 52.524
0.6046510 	 30.3914052 	 94383.5686 	 1.063 	 52.525
0.6063874 	 31.2447063 	 101755.7157 	 1.061 	 52.524
0.6080790 	 32.1213504 	 113212.3239 	 1.056 	 52.546
0.6097301 	 33.0128467 	 127870.1552 	 1.052 	 52.544
0.6113365 	 33.9190042 	 146119.0275 	 1.045 	 52.548
0.6129042 	 34.8739747 	 167335.3158 	 1.038 	 52.593
0.6144317 	 35.8551313 	 191315.6185 	 1.031 	 52.615
0.6159196 	 36.8432134 	 213018.1597 	 1.024 	 52.606
0.6173695 	 37.9079196 	 236179.7212 	 1.018 	 52.622
0.6187802 	 39.0417696 	 257707.7457 	 1.010 	 52.631
0.6201517 	 40.2173274 	 276222.4483 	 1.007 	 52.674
0.6214854 	 41.4097008 	 294866.5391 	 1.001 	 52.658
0.6227813 	 42.6849295 	 313759.7544 	 0.998 	 52.640
0.6240396 	 44.0244424 	 330737.1045 	 0.996 	 52.659
0.6252615 	 45.3949775 	 347619.3329 	 0.993 	 52.665
0.6264480 	 46.8364151 	 365118.2148 	 0.992 	 52.663
0.6275993 	 48.3256185 	 381171.2447 	 0.990 	 52.646
0.6287154 	 49.8756659 	 396766.9162 	 0.990 	 52.682
0.6297991 	 51.4908075 	 413094.7118 	 0.990 	 52.682
