N=60 	 R=1000000 	 s=1 	 Save [density, Z, rho_t, like/unlike, events per sweep]
0.0002271 	 1.0008545 	 1.1027 	 1.005 	 7.113
0.0220761 	 1.1831936 	 11.9642 	 0.961 	 35.146
0.0428593 	 1.2259788 	 22.6135 	 0.997 	 47.967
0.0625922 	 1.3036118 	 33.0702 	 1.006 	 51.546
0.0813213 	 1.3961670 	 43.8575 	 1.008 	 52.647
0.0991254 	 1.4969676 	 54.1181 	 1.010 	 53.151
0.1160679 	 1.6044846 	 64.7328 	 1.011 	 53.351
0.1322476 	 1.7186002 	 75.2860 	 1.013 	 53.460
0.1476931 	 1.8364448 	 85.2658 	 1.015 	 53.590
0.1624489 	 1.9621923 	 95.7491 	 1.017 	 53.574
0.1765837 	 2.0926530 	 106.1184 	 1.019 	 53.561
0.1901169 	 2.2268935 	 117.6753 	 1.021 	 53.509
0.2030899 	 2.3661286 	 128.2729 	 1.023 	 53.512
0.2155498 	 2.5091685 	 139.1817 	 1.025 	 53.484
0.2275185 	 2.6574729 	 149.8606 	 1.028 	 53.470
0.2390258 	 2.8102682 	 159.8439 	 1.029 	 53.475
0.2501154 	 2.9662632 	 170.0562 	 1.031 	 53.442
0.2607916 	 3.1275248 	 180.7488 	 1.032 	 53.445
0.2710969 	 3.2917867 	 192.0234 	 1.035 	 53.415
0.2810347 	 3.4620477 	 202.3818 	 1.037 	 53.404
0.2906289 	 3.6350202 	 211.5711 	 1.039 	 53.385
0.2998939 	 3.8127012 	 221.6915 	 1.041 	 53.385
0.3088664 	 3.9943913 	 231.6102 	 1.042 	 53.352
0.3175448 	 4.1804726 	 241.1894 	 1.044 	 53.344
0.3259403 	 4.3696114 	 251.8915 	 1.046 	 53.324
0.3340770 	 4.5657183 	 262.3413 	 1.049 	 53.329
0.3419600 	 4.7635884 	 272.3037 	 1.051 	 53.313
0.3496103 	 4.9647558 	 282.0299 	 1.053 	 53.294
0.3570398 	 5.1703472 	 292.9620 	 1.055 	 53.280
0.3642556 	 5.3809891 	 300.9134 	 1.056 	 53.278
0.3712651 	 5.5959183 	 311.7041 	 1.058 	 53.266
0.3780752 	 5.8131924 	 322.4359 	 1.059 	 53.255
0.3846948 	 6.0334093 	 331.8736 	 1.062 	 53.223
0.3911333 	 6.2589225 	 344.3100 	 1.064 	 53.209
0.3974007 	 6.4909554 	 352.2639 	 1.065 	 53.226
0.4035048 	 6.7230311 	 364.2408 	 1.067 	 53.183
0.4094504 	 6.9617008 	 373.2384 	 1.068 	 53.175
0.4152473 	 7.2047719 	 381.4690 	 1.070 	 53.166
0.4208983 	 7.4502017 	 391.9265 	 1.072 	 53.139
0.4264070 	 7.6979018 	 402.7335 	 1.074 	 53.141
0.4317846 	 7.9516526 	 413.2484 	 1.075 	 53.108
0.4370289 	 8.2108894 	 423.9235 	 1.077 	 53.131
0.4421476 	 8.4692522 	 432.7023 	 1.078 	 53.094
0.4471511 	 8.7358830 	 442.2400 	 1.079 	 53.104
0.4520376 	 9.0042000 	 454.0021 	 1.079 	 53.095
0.4568122 	 9.2771520 	 463.5174 	 1.080 	 53.063
0.4614797 	 9.5495502 	 472.5810 	 1.081 	 53.051
0.4660376 	 9.8320248 	 482.1003 	 1.083 	 53.026
0.4704972 	 10.1140572 	 489.9381 	 1.084 	 53.047
0.4748638 	 10.4017988 	 499.0318 	 1.085 	 53.040
0.4791334 	 10.6918854 	 508.1727 	 1.087 	 53.012
0.4833163 	 10.9872340 	 520.1859 	 1.087 	 53.011
0.4874120 	 11.2801663 	 532.0672 	 1.087 	 52.975
0.4914202 	 11.5916160 	 540.0434 	 1.088 	 52.977
0.4953494 	 11.8934974 	 549.5908 	 1.089 	 52.955
0.4991946 	 12.2044731 	 558.4920 	 1.089 	 52.952
0.5029676 	 12.5149568 	 567.0858 	 1.090 	 52.943
0.5066640 	 12.8317513 	 574.8870 	 1.091 	 52.924
0.5102888 	 13.1577445 	 583.8920 	 1.090 	 52.932
0.5138453 	 13.4758437 	 595.2726 	 1.089 	 52.909
0.5173325 	 13.8163971 	 606.0391 	 1.089 	 52.931
0.5207482 	 14.1416292 	 622.4774 	 1.089 	 52.881
0.5241035 	 14.4793074 	 639.1257 	 1.089 	 52.895
0.5273969 	 14.8175735 	 652.6255 	 1.090 	 52.876
0.5306295 	 15.1676514 	 663.4136 	 1.090 	 52.879
0.5338025 	 15.5120355 	 682.0428 	 1.091 	 52.864
0.5369183 	 15.8681366 	 700.0290 	 1.090 	 52.838
0.5399784 	 16.2210143 	 721.9416 	 1.090 	 52.872
0.5429829 	 16.5845572 	 750.8863 	 1.089 	 52.840
0.5459355 	 16.9485757 	 788.5757 	 1.089 	 52.826
0.5488356 	 17.3133632 	 830.3169 	 1.089 	 52.834
0.5516857 	 17.6927525 	 892.2095 	 1.090 	 52.836
0.5544860 	 18.0690334 	 979.9928 	 1.089 	 52.811
0.5572394 	 18.4579710 	 1103.9509 	 1.090 	 52.825
0.5599472 	 18.8459567 	 1296.8248 	 1.090 	 52.806
0.5626076 	 19.2489225 	 1575.3970 	 1.091 	 52.806
0.5652186 	 19.6617951 	 1943.1394 	 1.091 	 52.766
0.5677856 	 20.0882947 	 2547.7593 	 1.093 	 52.784
0.5703047 	 20.5225510 	 3410.0430 	 1.094 	 52.798
0.5727825 	 20.9710886 	 4531.0012 	 1.096 	 52.768
0.5752114 	 21.4468502 	 5766.6382 	 1.097 	 52.767
0.5775949 	 21.9295390 	 7363.5098 	 1.099 	 52.771
0.5799302 	 22.4246789 	 9579.8155 	 1.102 	 52.749
0.5822196 	 22.9422768 	 12109.3146 	 1.103 	 52.764
0.5844647 	 23.4705435 	 15507.2524 	 1.105 	 52.763
0.5866663 	 24.0053671 	 20748.0808 	 1.106 	 52.754
0.5888247 	 24.5762548 	 27017.5969 	 1.107 	 52.758
0.5909379 	 25.1506137 	 35224.3092 	 1.108 	 52.757
0.5930092 	 25.7576741 	 44088.6655 	 1.109 	 52.769
0.5950363 	 26.3661530 	 54074.1568 	 1.110 	 52.741
0.5970182 	 27.0392412 	 63543.3939 	 1.111 	 52.749
0.5989554 	 27.7263835 	 73027.5184 	 1.111 	 52.735
0.6008495 	 28.4413737 	 80886.9626 	 1.110 	 52.750
0.6027006 	 29.1587098 	 88044.4188 	 1.107 	 52.738
0.6045096 	 29.8638473 	 96927.0238 	 1.101 	 52.727
0.6062820 	 30.5734750 	 112255.1492 	 1.092 	 52.781
0.6080189 	 31.2062137 	 145350.5700 	 1.077 	 52.790
0.6097250 	 31.7977364 	 213507.4052 	 1.057 	 52.842
0.6114073 	 32.3125721 	 328912.1119 	 1.033 	 52.925
0.6130655 	 32.8337796 	 484512.6214 	 1.010 	 52.985
0.6146987 	 33.4554739 	 639626.8997 	 0.990 	 53.049
0.6163016 	 34.1825270 	 773597.8934 	 0.974 	 53.093
0.6178715 	 35.0392930 	 867091.6092 	 0.964 	 53.139
0.6194035 	 36.0137869 	 926574.4020 	 0.957 	 53.142
0.6208951 	 37.1091028 	 960836.0616 	 0.952 	 53.167
0.6223437 	 38.2528165 	 978352.3547 	 0.949 	 53.170
0.6237500 	 39.4692996 	 988235.6827 	 0.947 	 53.157
0.6251156 	 40.7162990 	 993292.2458 	 0.945 	 53.153
0.6264387 	 42.0371154 	 995913.8206 	 0.943 	 53.141
0.6277239 	 43.4252432 	 997689.8938 	 0.942 	 53.148
0.6289699 	 44.8328386 	 998904.4848 	 0.940 	 53.131
