N=60 	 R=1000000 	 s=1 	 Save [density, Z, rho_t, like/unlike, events per sweep]
0.0002261 	 1.0008552 	 1.1026 	 0.988 	 7.113
0.0220452 	 1.1832369 	 12.0326 	 0.960 	 35.117
0.0428167 	 1.2258976 	 22.6267 	 0.998 	 47.975
0.0625243 	 1.3032205 	 33.1528 	 1.005 	 51.554
0.0812417 	 1.3957644 	 43.6414 	 1.008 	 52.644
0.0990490 	 1.4964521 	 53.6465 	 1.009 	 53.134
0.1160178 	 1.6041809 	 64.2428 	 1.012 	 53.374
0.1322016 	 1.7182210 	 74.8418 	 1.013 	 53.470
0.1476530 	 1.8364596 	 85.3484 	 1.015 	 53.619
0.1624164 	 1.9623580 	 96.0162 	 1.017 	 53.576
0.1765389 	 2.0920303 	 107.1909 	 1.019 	 53.552
0.1900578 	 2.2264944 	 117.1836 	 1.021 	 53.525
0.2030304 	 2.3650929 	 127.9511 	 1.023 	 53.508
0.2154830 	 2.5086286 	 138.4292 	 1.025 	 53.491
0.2274484 	 2.6569952 	 149.5398 	 1.028 	 53.484
0.2389647 	 2.8089101 	 160.3961 	 1.029 	 53.461
0.2500459 	 2.9651152 	 169.9205 	 1.031 	 53.448
0.2607214 	 3.1257101 	 179.4156 	 1.033 	 53.414
0.2710105 	 3.2915922 	 190.8742 	 1.035 	 53.431
0.2809502 	 3.4604331 	 201.2776 	 1.037 	 53.410
0.2905495 	 3.6336439 	 210.0455 	 1.038 	 53.370
0.2998281 	 3.8115050 	 221.0962 	 1.040 	 53.377
0.3087946 	 3.9936894 	 231.8738 	 1.042 	 53.372
0.3174719 	 4.1786211 	 243.5499 	 1.045 	 53.370
0.3258782 	 4.3698906 	 252.4715 	 1.047 	 53.356
0.3340192 	 4.5628488 	 262.4953 	 1.049 	 53.329
0.3419137 	 4.7607050 	 273.6019 	 1.050 	 53.315
0.3495705 	 4.9625935 	 282.4865 	 1.052 	 53.299
0.3570009 	 5.1692967 	 292.3949 	 1.055 	 53.283
0.3642116 	 5.3786882 	 302.2955 	 1.056 	 53.264
0.3712170 	 5.5920115 	 310.2194 	 1.058 	 53.248
0.3780289 	 5.8116611 	 321.3393 	 1.060 	 53.256
0.3846505 	 6.0348596 	 331.8399 	 1.062 	 53.244
0.3910937 	 6.2595306 	 341.0402 	 1.064 	 53.229
0.3973649 	 6.4902715 	 353.3255 	 1.065 	 53.213
0.4034749 	 6.7227650 	 364.1915 	 1.066 	 53.183
0.4094301 	 6.9614472 	 376.8890 	 1.068 	 53.178
0.4152278 	 7.2029500 	 388.7678 	 1.070 	 53.171
0.4208815 	 7.4489185 	 397.0698 	 1.071 	 53.152
0.4263942 	 7.6996716 	 409.7784 	 1.074 	 53.123
0.4317697 	 7.9531662 	 421.3231 	 1.075 	 53.128
0.4370185 	 8.2116019 	 433.1927 	 1.076 	 53.128
0.4421394 	 8.4701429 	 443.8399 	 1.077 	 53.097
0.4471415 	 8.7352587 	 453.7908 	 1.079 	 53.093
0.4520292 	 9.0002245 	 467.2169 	 1.080 	 53.058
0.4568059 	 9.2753794 	 475.2557 	 1.082 	 53.077
0.4614743 	 9.5482525 	 487.1085 	 1.082 	 53.057
0.4660403 	 9.8309785 	 496.5778 	 1.084 	 53.028
0.4705016 	 10.1161208 	 505.7216 	 1.083 	 53.049
0.4748690 	 10.4004865 	 516.7519 	 1.084 	 53.006
0.4791450 	 10.6943920 	 524.3655 	 1.085 	 53.007
0.4833278 	 10.9900346 	 537.7130 	 1.085 	 52.999
0.4874231 	 11.2850115 	 544.1703 	 1.086 	 52.983
0.4914290 	 11.5846909 	 554.6890 	 1.087 	 52.964
0.4953556 	 11.8918159 	 561.8192 	 1.088 	 52.972
0.4992058 	 12.2017136 	 573.6384 	 1.087 	 52.951
0.5029752 	 12.5152686 	 587.9088 	 1.088 	 52.946
0.5066684 	 12.8308518 	 596.7481 	 1.089 	 52.938
0.5102942 	 13.1538807 	 608.1653 	 1.089 	 52.945
0.5138483 	 13.4768172 	 621.5688 	 1.089 	 52.915
0.5173335 	 13.8071608 	 633.5544 	 1.089 	 52.913
0.5207560 	 14.1325455 	 646.4393 	 1.090 	 52.889
0.5241141 	 14.4792849 	 654.1073 	 1.090 	 52.895
0.5274067 	 14.8171933 	 663.9419 	 1.090 	 52.886
0.5306404 	 15.1554317 	 682.7909 	 1.090 	 52.872
0.5338166 	 15.5075902 	 697.2148 	 1.090 	 52.861
0.5369344 	 15.8620326 	 712.5758 	 1.090 	 52.854
0.5399941 	 16.2176844 	 730.9315 	 1.090 	 52.834
0.5430016 	 16.5773863 	 755.1938 	 1.090 	 52.829
0.5459566 	 16.9387116 	 792.5314 	 1.088 	 52.843
0.5488610 	 17.3011751 	 846.1374 	 1.088 	 52.831
0.5517150 	 17.6788499 	 921.9714 	 1.087 	 52.830
0.5545207 	 18.0577056 	 1035.2651 	 1.087 	 52.810
0.5572749 	 18.4338462 	 1236.7106 	 1.086 	 52.792
0.5599824 	 18.8251927 	 1512.9855 	 1.084 	 52.816
0.5626453 	 19.2176656 	 1955.7938 	 1.083 	 52.807
0.5652631 	 19.6225057 	 2591.4823 	 1.082 	 52.800
0.5678380 	 20.0235566 	 3616.1252 	 1.083 	 52.782
0.5703668 	 20.4556845 	 5104.9122 	 1.081 	 52.790
0.5728507 	 20.8903546 	 7128.8773 	 1.080 	 52.778
0.5752918 	 21.3335529 	 9778.0523 	 1.080 	 52.758
0.5776875 	 21.8037637 	 13159.1778 	 1.080 	 52.762
0.5800406 	 22.2945838 	 17136.4239 	 1.081 	 52.755
0.5823470 	 22.8097471 	 21877.5965 	 1.082 	 52.741
0.5846067 	 23.3599204 	 27246.8242 	 1.084 	 52.754
0.5868180 	 23.9399086 	 32590.4043 	 1.088 	 52.764
0.5889819 	 24.5557679 	 38073.0981 	 1.091 	 52.756
0.5910957 	 25.1912143 	 43473.9109 	 1.097 	 52.729
0.5931588 	 25.8616961 	 48616.2897 	 1.101 	 52.715
0.5951721 	 26.5821541 	 52297.9829 	 1.107 	 52.719
0.5971365 	 27.3300024 	 56283.7681 	 1.112 	 52.726
0.5990513 	 28.1201009 	 59094.7747 	 1.119 	 52.748
0.6009136 	 28.9154515 	 61380.7155 	 1.122 	 52.733
0.6027290 	 29.7499185 	 63089.6317 	 1.127 	 52.708
0.6044976 	 30.6201568 	 64914.5660 	 1.130 	 52.750
0.6062201 	 31.4776135 	 68810.3835 	 1.133 	 52.751
0.6078994 	 32.3722875 	 74349.3390 	 1.135 	 52.789
0.6095351 	 33.2594864 	 83760.0265 	 1.135 	 52.810
0.6111310 	 34.1640174 	 100065.1525 	 1.135 	 52.837
0.6126868 	 35.0797921 	 122954.5267 	 1.135 	 52.867
0.6142056 	 35.9973473 	 152770.6107 	 1.134 	 52.894
0.6156873 	 36.9715793 	 191001.0164 	 1.136 	 52.922
0.6171316 	 38.0050927 	 232137.0305 	 1.137 	 52.992
0.6185386 	 39.0582714 	 275115.4196 	 1.139 	 52.998
0.6199100 	 40.1865616 	 323336.7906 	 1.142 	 53.031
0.6212441 	 41.3864473 	 368713.5640 	 1.145 	 53.071
0.6225411 	 42.6282667 	 413916.7455 	 1.147 	 53.087
0.6238012 	 43.9645040 	 458567.6850 	 1.150 	 53.127
0.6250238 	 45.3401090 	 502441.3773 	 1.153 	 53.135
0.6262109 	 46.7748189 	 547092.0049 	 1.157 	 53.159
0.6273637 	 48.2799751 	 588736.8335 	 1.159 	 53.183
0.6284806 	 49.8452374 	 627713.3505 	 1.161 	 53.182
0.6295637 	 51.4566593 	 665897.3944 	 1.164 	 53.197
