N=60 	 R=1000000 	 s=1 	 Save [density, Z, rho_t, like/unlike, events per sweep]
0.0002255 	 1.0008510 	 1.1027 	 0.992 	 7.112
0.0220553 	 1.1833286 	 12.0333 	 0.960 	 35.134
0.0428679 	 1.2260635 	 22.7152 	 0.998 	 47.972
0.0625983 	 1.3035591 	 33.2484 	 1.006 	 51.518
0.0812928 	 1.3961168 	 43.8075 	 1.008 	 52.665
0.0990819 	 1.4966685 	 54.6258 	 1.010 	 53.128
0.1160465 	 1.6043921 	 65.2786 	 1.011 	 53.368
0.1322168 	 1.7180988 	 76.3772 	 1.013 	 53.446
0.1476738 	 1.8365318 	 87.3089 	 1.014 	 53.588
0.1624293 	 1.9624114 	 96.9229 	 1.017 	 53.588
0.1765538 	 2.0922070 	 107.3319 	 1.019 	 53.560
0.1900864 	 2.2271028 	 118.9255 	 1.021 	 53.531
0.2030662 	 2.3653102 	 130.0098 	 1.023 	 53.512
0.2155223 	 2.5096933 	 141.3241 	 1.025 	 53.496
0.2274963 	 2.6569497 	 151.9070 	 1.027 	 53.465
0.2390034 	 2.8094042 	 161.8292 	 1.029 	 53.441
0.2500788 	 2.9660808 	 173.5313 	 1.031 	 53.446
0.2607601 	 3.1272478 	 184.7447 	 1.032 	 53.448
0.2710645 	 3.2918146 	 195.3726 	 1.034 	 53.427
0.2810005 	 3.4610436 	 205.0797 	 1.036 	 53.392
0.2905987 	 3.6336579 	 214.9986 	 1.038 	 53.374
0.2998677 	 3.8136540 	 226.7146 	 1.041 	 53.410
0.3088254 	 3.9937742 	 235.6039 	 1.042 	 53.380
0.3175018 	 4.1802571 	 245.1766 	 1.045 	 53.350
0.3259048 	 4.3706306 	 255.4845 	 1.046 	 53.353
0.3340430 	 4.5634521 	 267.8192 	 1.048 	 53.312
0.3419323 	 4.7616812 	 277.1952 	 1.051 	 53.318
0.3495897 	 4.9643260 	 288.0000 	 1.052 	 53.313
0.3570151 	 5.1704530 	 298.8597 	 1.054 	 53.286
0.3642305 	 5.3794294 	 307.8701 	 1.057 	 53.266
0.3712374 	 5.5937140 	 318.0877 	 1.058 	 53.265
0.3780520 	 5.8136044 	 327.4057 	 1.060 	 53.261
0.3846756 	 6.0351209 	 338.9776 	 1.062 	 53.249
0.3911181 	 6.2593058 	 349.4716 	 1.063 	 53.228
0.3973914 	 6.4917860 	 360.0192 	 1.066 	 53.220
0.4034955 	 6.7239980 	 372.1696 	 1.066 	 53.198
0.4094451 	 6.9598133 	 385.8726 	 1.068 	 53.154
0.4152436 	 7.2043991 	 397.4412 	 1.070 	 53.175
0.4208961 	 7.4492324 	 408.6521 	 1.072 	 53.143
0.4264044 	 7.6999482 	 418.7950 	 1.074 	 53.145
0.4317794 	 7.9510589 	 432.5426 	 1.075 	 53.113
0.4370233 	 8.2102316 	 443.0340 	 1.076 	 53.141
0.4421421 	 8.4698588 	 455.0766 	 1.078 	 53.110
0.4471432 	 8.7365417 	 459.3923 	 1.079 	 53.097
0.4520280 	 9.0017934 	 468.6769 	 1.080 	 53.072
0.4567988 	 9.2757174 	 482.1638 	 1.082 	 53.080
0.4614648 	 9.5519799 	 490.6050 	 1.081 	 53.058
0.4660291 	 9.8312977 	 500.5335 	 1.082 	 53.053
0.4704926 	 10.1144218 	 510.1348 	 1.083 	 53.050
0.4748581 	 10.4000491 	 516.9019 	 1.084 	 53.012
0.4791279 	 10.6919770 	 529.7134 	 1.085 	 53.015
0.4833106 	 10.9847376 	 542.1163 	 1.085 	 52.985
0.4874053 	 11.2853066 	 550.6041 	 1.087 	 52.971
0.4914121 	 11.5888280 	 561.1378 	 1.088 	 52.981
0.4953413 	 11.8954813 	 574.8934 	 1.088 	 52.963
0.4991889 	 12.2033067 	 586.2143 	 1.089 	 52.952
0.5029592 	 12.5140622 	 597.8207 	 1.090 	 52.944
0.5066552 	 12.8309430 	 609.5845 	 1.089 	 52.930
0.5102812 	 13.1532165 	 623.6236 	 1.089 	 52.926
0.5138355 	 13.4754773 	 634.1362 	 1.088 	 52.899
0.5173217 	 13.8089742 	 645.8699 	 1.090 	 52.904
0.5207426 	 14.1362482 	 660.7016 	 1.089 	 52.908
0.5240994 	 14.4768869 	 675.0825 	 1.089 	 52.902
0.5273944 	 14.8114633 	 693.9100 	 1.090 	 52.878
0.5306286 	 15.1642573 	 710.1125 	 1.090 	 52.896
0.5338027 	 15.5061846 	 729.8260 	 1.089 	 52.849
0.5369202 	 15.8617056 	 746.1294 	 1.090 	 52.832
0.5399821 	 16.2169547 	 764.6289 	 1.088 	 52.851
0.5429881 	 16.5771549 	 799.4814 	 1.088 	 52.839
0.5459431 	 16.9472603 	 829.7927 	 1.088 	 52.828
0.5488448 	 17.3087772 	 867.3275 	 1.087 	 52.801
0.5516967 	 17.6806242 	 931.1868 	 1.085 	 52.819
0.5544975 	 18.0591284 	 1003.7747 	 1.084 	 52.817
0.5572530 	 18.4527818 	 1115.2442 	 1.084 	 52.820
0.5599588 	 18.8435969 	 1261.5811 	 1.083 	 52.810
0.5626189 	 19.2301874 	 1473.8062 	 1.083 	 52.815
0.5652353 	 19.6318927 	 1824.0039 	 1.081 	 52.792
0.5678038 	 20.0441214 	 2399.3964 	 1.079 	 52.794
0.5703301 	 20.4578567 	 3182.2803 	 1.077 	 52.799
0.5728130 	 20.8846559 	 4411.4818 	 1.074 	 52.774
0.5752530 	 21.3404166 	 6162.2970 	 1.073 	 52.789
0.5776489 	 21.7980766 	 8850.4303 	 1.070 	 52.781
0.5799995 	 22.2850250 	 12549.7576 	 1.067 	 52.779
0.5823054 	 22.7954119 	 17679.0003 	 1.064 	 52.784
0.5845663 	 23.3280223 	 24074.1202 	 1.062 	 52.780
0.5867811 	 23.8848244 	 32180.8083 	 1.061 	 52.770
0.5889490 	 24.4700553 	 42102.9968 	 1.059 	 52.767
0.5910703 	 25.0945064 	 53571.3780 	 1.058 	 52.754
0.5931433 	 25.7413386 	 66130.8577 	 1.056 	 52.746
0.5951694 	 26.4087833 	 78708.7479 	 1.056 	 52.717
0.5971464 	 27.1238223 	 92634.2549 	 1.057 	 52.735
0.5990770 	 27.8468443 	 106140.7429 	 1.055 	 52.723
0.6009620 	 28.5777558 	 119509.2045 	 1.055 	 52.719
0.6028029 	 29.3227607 	 129091.8936 	 1.053 	 52.705
0.6046013 	 30.0796542 	 139357.0681 	 1.050 	 52.716
0.6063587 	 30.8109649 	 156455.2473 	 1.048 	 52.719
0.6080784 	 31.5330612 	 183636.4300 	 1.044 	 52.740
0.6097642 	 32.2502278 	 227997.9341 	 1.039 	 52.773
0.6114161 	 32.9508455 	 298964.9884 	 1.036 	 52.791
0.6130358 	 33.6942061 	 393975.8855 	 1.030 	 52.838
0.6146217 	 34.4824325 	 505330.5485 	 1.026 	 52.854
0.6161740 	 35.3505630 	 615824.3586 	 1.022 	 52.901
0.6176891 	 36.2968140 	 714901.5013 	 1.021 	 52.930
0.6191651 	 37.3395816 	 796135.9809 	 1.020 	 52.955
0.6206025 	 38.4415755 	 857220.6859 	 1.020 	 52.927
0.6219989 	 39.6487760 	 901032.4574 	 1.022 	 52.939
0.6233538 	 40.9227821 	 931774.9235 	 1.023 	 52.940
0.6246686 	 42.2371024 	 954489.7587 	 1.024 	 52.944
0.6259436 	 43.6167569 	 970123.0627 	 1.026 	 52.944
0.6271807 	 45.0647641 	 978839.9845 	 1.028 	 52.914
0.6283778 	 46.5600103 	 985545.3827 	 1.030 	 52.925
0.6295381 	 48.1264652 	 989742.9485 	 1.032 	 52.901
