N=60 	 R=1000000 	 s=1 	 Save [density, Z, rho_t, like/unlike, events per sweep]
0.0002260 	 1.0008544 	 1.1026 	 0.984 	 7.113
0.0220656 	 1.1832720 	 11.9552 	 0.960 	 35.128
0.0428509 	 1.2260673 	 22.5246 	 0.998 	 47.976
0.0625767 	 1.3033744 	 32.9606 	 1.006 	 51.536
0.0812869 	 1.3960367 	 43.4151 	 1.009 	 52.636
0.0990875 	 1.4968555 	 53.7191 	 1.010 	 53.147
0.1160438 	 1.6041957 	 64.5085 	 1.012 	 53.351
0.1322047 	 1.7183481 	 75.2112 	 1.012 	 53.496
0.1476428 	 1.8363410 	 85.8332 	 1.014 	 53.604
0.1624058 	 1.9618329 	 96.3056 	 1.017 	 53.558
0.1765369 	 2.0921511 	 106.8640 	 1.020 	 53.564
0.1900685 	 2.2263472 	 116.9582 	 1.021 	 53.521
0.2030504 	 2.3659446 	 126.5225 	 1.022 	 53.531
0.2155012 	 2.5091652 	 135.8985 	 1.025 	 53.497
0.2274659 	 2.6563703 	 147.0929 	 1.027 	 53.482
0.2389766 	 2.8096005 	 157.7768 	 1.030 	 53.471
0.2500488 	 2.9654349 	 167.7602 	 1.031 	 53.459
0.2607193 	 3.1260165 	 179.5469 	 1.033 	 53.425
0.2710145 	 3.2915488 	 190.3613 	 1.035 	 53.415
0.2809512 	 3.4597111 	 200.9651 	 1.036 	 53.403
0.2905420 	 3.6336911 	 210.4750 	 1.039 	 53.392
0.2998204 	 3.8106820 	 220.3525 	 1.040 	 53.384
0.3087899 	 3.9927405 	 229.2544 	 1.043 	 53.346
0.3174725 	 4.1797453 	 240.2725 	 1.044 	 53.368
0.3258762 	 4.3692347 	 253.5965 	 1.046 	 53.340
0.3340136 	 4.5634377 	 264.9602 	 1.049 	 53.327
0.3419084 	 4.7608159 	 276.3128 	 1.049 	 53.304
0.3495584 	 4.9630141 	 285.9543 	 1.053 	 53.299
0.3569869 	 5.1687485 	 298.3522 	 1.054 	 53.289
0.3641958 	 5.3778395 	 307.9955 	 1.057 	 53.263
0.3711972 	 5.5930555 	 315.8166 	 1.058 	 53.274
0.3780077 	 5.8113418 	 321.4175 	 1.060 	 53.250
0.3846365 	 6.0332763 	 330.5912 	 1.061 	 53.232
0.3910771 	 6.2590190 	 341.0609 	 1.063 	 53.225
0.3973452 	 6.4884118 	 352.1146 	 1.065 	 53.208
0.4034491 	 6.7226429 	 363.0590 	 1.066 	 53.207
0.4093996 	 6.9603842 	 374.3060 	 1.068 	 53.201
0.4151978 	 7.2026298 	 384.9960 	 1.069 	 53.178
0.4208497 	 7.4480708 	 395.3344 	 1.071 	 53.174
0.4263635 	 7.6963909 	 404.1059 	 1.072 	 53.133
0.4317415 	 7.9492088 	 417.5761 	 1.074 	 53.117
0.4369883 	 8.2061582 	 428.9820 	 1.076 	 53.113
0.4421090 	 8.4685217 	 438.7593 	 1.077 	 53.095
0.4471114 	 8.7328788 	 448.5426 	 1.078 	 53.077
0.4519976 	 9.0032444 	 456.5404 	 1.080 	 53.080
0.4567724 	 9.2719099 	 466.4502 	 1.081 	 53.047
0.4614411 	 9.5494964 	 473.5343 	 1.081 	 53.045
0.4660039 	 9.8317230 	 485.3912 	 1.082 	 53.036
0.4704669 	 10.1116971 	 498.8606 	 1.083 	 53.030
0.4748325 	 10.3999903 	 507.9719 	 1.085 	 53.023
0.4791053 	 10.6919582 	 519.1045 	 1.084 	 53.002
0.4832894 	 10.9870551 	 532.2916 	 1.085 	 52.999
0.4873823 	 11.2805480 	 540.8383 	 1.086 	 52.982
0.4913933 	 11.5820399 	 550.6173 	 1.088 	 52.979
0.4953211 	 11.8914526 	 561.4473 	 1.089 	 52.948
0.4991702 	 12.1984958 	 576.5176 	 1.089 	 52.954
0.5029418 	 12.5117868 	 588.0538 	 1.090 	 52.933
0.5066371 	 12.8323271 	 605.7675 	 1.089 	 52.939
0.5102634 	 13.1541907 	 617.8907 	 1.090 	 52.921
0.5138197 	 13.4728268 	 628.6980 	 1.091 	 52.914
0.5173047 	 13.8066698 	 643.5988 	 1.091 	 52.913
0.5207262 	 14.1316336 	 661.3562 	 1.092 	 52.882
0.5240812 	 14.4713667 	 674.6492 	 1.092 	 52.874
0.5273784 	 14.8190622 	 687.6384 	 1.092 	 52.911
0.5306101 	 15.1571835 	 702.3893 	 1.092 	 52.860
0.5337840 	 15.5074473 	 720.4784 	 1.092 	 52.850
0.5369005 	 15.8659399 	 739.0792 	 1.092 	 52.850
0.5399592 	 16.2207360 	 763.7020 	 1.091 	 52.845
0.5429647 	 16.5811514 	 789.0982 	 1.091 	 52.849
0.5459168 	 16.9468769 	 816.8789 	 1.092 	 52.822
0.5488166 	 17.3187077 	 848.6045 	 1.091 	 52.827
0.5516655 	 17.6855662 	 897.8858 	 1.091 	 52.813
0.5544662 	 18.0590990 	 967.0314 	 1.091 	 52.797
0.5572217 	 18.4469350 	 1066.1616 	 1.090 	 52.822
0.5599311 	 18.8285879 	 1252.6366 	 1.091 	 52.821
0.5625959 	 19.1928453 	 1602.1179 	 1.091 	 52.801
0.5652182 	 19.5615183 	 2335.4296 	 1.091 	 52.791
0.5678012 	 19.9348336 	 3897.3252 	 1.089 	 52.813
0.5703456 	 20.2960088 	 7472.6231 	 1.090 	 52.788
0.5728544 	 20.6448117 	 15130.6305 	 1.089 	 52.798
0.5753334 	 20.9658500 	 30204.8638 	 1.087 	 52.815
0.5777828 	 21.2801247 	 56323.2876 	 1.083 	 52.810
0.5802049 	 21.5947442 	 96626.0030 	 1.076 	 52.804
0.5825979 	 21.9248710 	 148651.7195 	 1.068 	 52.810
0.5849615 	 22.2840359 	 208988.3033 	 1.053 	 52.818
0.5872940 	 22.7018884 	 269632.4706 	 1.038 	 52.809
0.5895891 	 23.1739276 	 329377.0012 	 1.018 	 52.840
0.5918408 	 23.6881880 	 393465.7452 	 0.997 	 52.836
0.5940487 	 24.2422750 	 463235.1080 	 0.974 	 52.870
0.5962115 	 24.8266107 	 540513.0000 	 0.952 	 52.871
0.5983288 	 25.4412843 	 627932.2408 	 0.929 	 52.901
0.6003966 	 26.1043793 	 713288.9237 	 0.911 	 52.952
0.6024176 	 26.8043241 	 788185.7370 	 0.897 	 52.966
0.6043892 	 27.5422468 	 851344.3405 	 0.886 	 52.975
0.6063117 	 28.3170972 	 901295.5027 	 0.878 	 52.976
0.6081843 	 29.1442472 	 936454.2005 	 0.873 	 53.003
0.6100063 	 30.0177902 	 960076.9065 	 0.870 	 53.015
0.6117783 	 30.9389545 	 974885.8340 	 0.869 	 53.016
0.6135002 	 31.8814264 	 985038.8696 	 0.869 	 53.016
0.6151734 	 32.8711559 	 991453.5946 	 0.870 	 52.997
0.6167996 	 33.9047768 	 995195.5860 	 0.871 	 52.990
0.6183781 	 34.9982399 	 997555.8731 	 0.873 	 53.001
0.6199092 	 36.1095870 	 998542.6952 	 0.874 	 52.997
0.6213966 	 37.2790922 	 999034.3156 	 0.876 	 52.996
0.6228392 	 38.4816869 	 999394.1357 	 0.879 	 52.979
0.6242379 	 39.7383791 	 999528.0799 	 0.881 	 52.995
0.6255940 	 41.0296681 	 999792.0157 	 0.883 	 52.990
0.6269091 	 42.3823289 	 999928.0025 	 0.885 	 52.987
0.6281857 	 43.7776153 	 999932.0023 	 0.887 	 52.985
0.6294223 	 45.2239457 	 999908.0042 	 0.889 	 52.972
