N=60 	 R=1000000 	 s=1 	 Save [density, Z, rho_t, like/unlike, events per sweep]
0.0002263 	 1.0008551 	 1.1026 	 0.988 	 7.113
0.0220807 	 1.1831832 	 12.0159 	 0.961 	 35.168
0.0428893 	 1.2261597 	 22.4222 	 0.998 	 47.993
0.0626104 	 1.3035547 	 32.8027 	 1.006 	 51.546
0.0813214 	 1.3962036 	 43.4707 	 1.008 	 52.649
0.0991264 	 1.4970494 	 54.3332 	 1.010 	 53.130
0.1160781 	 1.6045861 	 64.8606 	 1.012 	 53.379
0.1322371 	 1.7182469 	 75.7435 	 1.014 	 53.441
0.1476661 	 1.8362778 	 85.6649 	 1.014 	 53.589
0.1624243 	 1.9621964 	 96.0809 	 1.016 	 53.579
0.1765403 	 2.0921156 	 106.1790 	 1.019 	 53.544
0.1900636 	 2.2262080 	 116.9956 	 1.021 	 53.518
0.2030369 	 2.3653747 	 126.5843 	 1.024 	 53.517
0.2154816 	 2.5088831 	 137.0169 	 1.025 	 53.486
0.2274563 	 2.6570895 	 147.8371 	 1.028 	 53.484
0.2389736 	 2.8089716 	 158.0689 	 1.029 	 53.442
0.2500651 	 2.9650767 	 168.8601 	 1.031 	 53.443
0.2607468 	 3.1260108 	 179.0365 	 1.033 	 53.425
0.2710455 	 3.2913043 	 189.1323 	 1.035 	 53.421
0.2809817 	 3.4605857 	 200.0667 	 1.037 	 53.397
0.2905755 	 3.6346807 	 210.4411 	 1.038 	 53.407
0.2998463 	 3.8122356 	 220.0205 	 1.041 	 53.391
0.3088146 	 3.9933296 	 230.7519 	 1.042 	 53.354
0.3174960 	 4.1801892 	 239.4876 	 1.045 	 53.369
0.3259027 	 4.3703113 	 248.9301 	 1.046 	 53.365
0.3340362 	 4.5639075 	 258.6532 	 1.048 	 53.334
0.3419229 	 4.7618151 	 269.3518 	 1.051 	 53.322
0.3495710 	 4.9613706 	 280.3641 	 1.053 	 53.262
0.3570005 	 5.1698463 	 293.2287 	 1.054 	 53.299
0.3642162 	 5.3792300 	 304.2267 	 1.057 	 53.268
0.3712315 	 5.5927925 	 312.2074 	 1.058 	 53.251
0.3780415 	 5.8123280 	 323.7263 	 1.060 	 53.260
0.3846642 	 6.0328355 	 334.0305 	 1.062 	 53.225
0.3911117 	 6.2603566 	 343.5280 	 1.063 	 53.224
0.3973856 	 6.4894783 	 355.4647 	 1.065 	 53.191
0.4034869 	 6.7223040 	 365.1903 	 1.066 	 53.184
0.4094338 	 6.9591137 	 374.8135 	 1.068 	 53.163
0.4152308 	 7.2030243 	 388.1095 	 1.070 	 53.164
0.4208816 	 7.4478756 	 397.3078 	 1.072 	 53.136
0.4263943 	 7.6968892 	 405.9939 	 1.073 	 53.140
0.4317710 	 7.9517766 	 418.5413 	 1.075 	 53.129
0.4370185 	 8.2084786 	 430.1565 	 1.076 	 53.116
0.4421415 	 8.4686541 	 439.0914 	 1.077 	 53.105
0.4471431 	 8.7354253 	 448.4944 	 1.078 	 53.098
0.4520298 	 9.0014881 	 458.1660 	 1.079 	 53.078
0.4568037 	 9.2729209 	 469.5291 	 1.080 	 53.042
0.4614680 	 9.5496739 	 482.0530 	 1.082 	 53.036
0.4660337 	 9.8282960 	 491.0883 	 1.081 	 53.045
0.4704986 	 10.1133977 	 502.1918 	 1.083 	 53.023
0.4748625 	 10.3991229 	 517.4129 	 1.084 	 53.003
0.4791352 	 10.6941785 	 528.2258 	 1.086 	 53.000
0.4833169 	 10.9881383 	 539.2668 	 1.086 	 52.997
0.4874107 	 11.2847763 	 544.5388 	 1.086 	 52.986
0.4914218 	 11.5879925 	 555.0207 	 1.087 	 52.981
0.4953499 	 11.8940527 	 568.6386 	 1.087 	 52.968
0.4991979 	 12.2003210 	 581.3577 	 1.088 	 52.952
0.5029664 	 12.5127552 	 595.2218 	 1.089 	 52.956
0.5066621 	 12.8323224 	 606.8721 	 1.091 	 52.939
0.5102870 	 13.1541524 	 621.9402 	 1.090 	 52.924
0.5138432 	 13.4863830 	 629.7889 	 1.091 	 52.909
0.5173275 	 13.8070550 	 639.1250 	 1.090 	 52.896
0.5207475 	 14.1447011 	 652.8025 	 1.090 	 52.901
0.5241047 	 14.4797773 	 670.3127 	 1.091 	 52.906
0.5273971 	 14.8214985 	 680.4836 	 1.091 	 52.857
0.5306290 	 15.1622303 	 693.4855 	 1.090 	 52.860
0.5338009 	 15.5126146 	 704.2521 	 1.091 	 52.863
0.5369162 	 15.8659942 	 720.6955 	 1.090 	 52.850
0.5399776 	 16.2198434 	 743.6638 	 1.088 	 52.845
0.5429842 	 16.5731889 	 768.3758 	 1.088 	 52.821
0.5459375 	 16.9454217 	 799.0273 	 1.088 	 52.847
0.5488385 	 17.3052685 	 845.8315 	 1.087 	 52.812
0.5516934 	 17.6787995 	 928.0910 	 1.085 	 52.818
0.5544971 	 18.0579315 	 1045.3827 	 1.084 	 52.801
0.5572540 	 18.4394923 	 1257.4722 	 1.082 	 52.808
0.5599616 	 18.8209322 	 1637.6552 	 1.082 	 52.766
0.5626243 	 19.2237286 	 2262.0882 	 1.080 	 52.779
0.5652410 	 19.6158298 	 3447.5457 	 1.080 	 52.766
0.5678140 	 20.0278113 	 5484.8775 	 1.080 	 52.750
0.5703414 	 20.4501365 	 8490.7347 	 1.079 	 52.774
0.5728271 	 20.8685202 	 13213.0043 	 1.078 	 52.762
0.5752708 	 21.2984266 	 20495.2688 	 1.076 	 52.734
0.5776698 	 21.7479045 	 29904.9920 	 1.076 	 52.709
0.5800306 	 22.2092322 	 41705.7109 	 1.075 	 52.685
0.5823475 	 22.7065848 	 54664.3985 	 1.076 	 52.676
0.5846177 	 23.2241211 	 69433.5386 	 1.078 	 52.694
0.5868464 	 23.7463677 	 82799.2148 	 1.079 	 52.657
0.5890275 	 24.3274135 	 92575.0645 	 1.082 	 52.636
0.5911628 	 24.9316907 	 98676.6032 	 1.085 	 52.635
0.5932503 	 25.5541560 	 103908.7600 	 1.088 	 52.606
0.5952934 	 26.2151208 	 103577.2918 	 1.091 	 52.586
0.5972888 	 26.8966169 	 102707.8939 	 1.096 	 52.585
0.5992384 	 27.5911175 	 102819.0302 	 1.099 	 52.556
0.6011427 	 28.3059631 	 105805.0298 	 1.102 	 52.546
0.6030033 	 29.0353563 	 116635.3645 	 1.103 	 52.533
0.6048200 	 29.7680165 	 139075.6254 	 1.104 	 52.513
0.6065968 	 30.5145573 	 177712.7377 	 1.102 	 52.520
0.6083334 	 31.2811707 	 234932.3724 	 1.102 	 52.505
0.6100300 	 32.0864657 	 311269.6908 	 1.101 	 52.516
0.6116884 	 32.9086988 	 397785.0348 	 1.101 	 52.506
0.6133081 	 33.7980622 	 490398.6784 	 1.101 	 52.509
0.6148871 	 34.7602635 	 578088.4173 	 1.101 	 52.497
0.6164247 	 35.7923087 	 656203.9195 	 1.104 	 52.483
0.6179185 	 36.8823075 	 723180.3009 	 1.107 	 52.450
0.6193691 	 38.0687553 	 774845.3368 	 1.112 	 52.429
0.6207755 	 39.3009434 	 817166.4900 	 1.115 	 52.419
0.6221398 	 40.6063832 	 849079.5260 	 1.120 	 52.399
0.6234617 	 41.9845596 	 872970.3284 	 1.125 	 52.389
0.6247418 	 43.4248916 	 891583.1575 	 1.129 	 52.367
0.6259817 	 44.8813847 	 906157.2600 	 1.133 	 52.338
0.6271811 	 46.4149434 	 919818.7124 	 1.136 	 52.323
0.6283434 	 48.0185234 	 930632.6921 	 1.142 	 52.298
0.6294673 	 49.6385050 	 936766.3214 	 1.144 	 52.283
