N=60 	 R=1000000 	 s=1 	 Save [density, Z, rho_t, like/unlike, events per sweep]
0.0002258 	 1.0008559 	 1.1027 	 1.005 	 7.113
0.0220914 	 1.1832086 	 11.9974 	 0.961 	 35.161
0.0428865 	 1.2261353 	 22.5547 	 0.998 	 47.991
0.0626116 	 1.3037500 	 32.7862 	 1.007 	 51.555
0.0813291 	 1.3963213 	 43.1943 	 1.008 	 52.650
0.0991168 	 1.4969078 	 53.5043 	 1.010 	 53.134
0.1160771 	 1.6045698 	 64.1105 	 1.011 	 53.362
0.1322321 	 1.7187429 	 74.9697 	 1.013 	 53.472
0.1476760 	 1.8363603 	 85.4065 	 1.014 	 53.562
0.1624287 	 1.9621066 	 95.7944 	 1.016 	 53.575
0.1765544 	 2.0923005 	 106.2838 	 1.019 	 53.528
0.1900887 	 2.2271892 	 117.5933 	 1.021 	 53.531
0.2030531 	 2.3658656 	 127.9997 	 1.023 	 53.501
0.2154959 	 2.5092882 	 137.9103 	 1.025 	 53.502
0.2274667 	 2.6567778 	 148.3081 	 1.027 	 53.490
0.2389777 	 2.8091871 	 159.1838 	 1.029 	 53.467
0.2500521 	 2.9659345 	 169.8027 	 1.031 	 53.466
0.2607278 	 3.1263697 	 180.0107 	 1.033 	 53.428
0.2710293 	 3.2910675 	 189.0921 	 1.035 	 53.425
0.2809640 	 3.4596525 	 199.7254 	 1.037 	 53.384
0.2905615 	 3.6337312 	 209.5215 	 1.039 	 53.382
0.2998371 	 3.8112182 	 220.6874 	 1.040 	 53.363
0.3088036 	 3.9935416 	 231.3338 	 1.043 	 53.368
0.3174745 	 4.1799445 	 242.9913 	 1.045 	 53.367
0.3258762 	 4.3689315 	 253.1343 	 1.046 	 53.345
0.3340133 	 4.5629576 	 264.9846 	 1.049 	 53.326
0.3419029 	 4.7617396 	 277.2254 	 1.051 	 53.327
0.3495600 	 4.9622758 	 286.0475 	 1.052 	 53.287
0.3569831 	 5.1684546 	 298.4958 	 1.054 	 53.278
0.3642004 	 5.3796235 	 308.0790 	 1.056 	 53.283
0.3712063 	 5.5937703 	 317.9121 	 1.059 	 53.260
0.3780153 	 5.8099085 	 328.6490 	 1.060 	 53.237
0.3846382 	 6.0313734 	 340.2547 	 1.061 	 53.245
0.3910779 	 6.2587577 	 350.5161 	 1.063 	 53.216
0.3973493 	 6.4881316 	 362.9883 	 1.065 	 53.211
0.4034590 	 6.7222275 	 373.0109 	 1.067 	 53.186
0.4094101 	 6.9610248 	 381.9611 	 1.069 	 53.171
0.4152124 	 7.2039625 	 392.8122 	 1.070 	 53.167
0.4208599 	 7.4476524 	 402.4858 	 1.072 	 53.147
0.4263704 	 7.6955745 	 411.0101 	 1.074 	 53.118
0.4317470 	 7.9475220 	 421.1136 	 1.075 	 53.112
0.4369913 	 8.2051769 	 432.8811 	 1.077 	 53.109
0.4421145 	 8.4691984 	 443.4909 	 1.078 	 53.099
0.4471139 	 8.7332022 	 452.8891 	 1.081 	 53.093
0.4520013 	 9.0029080 	 465.5647 	 1.081 	 53.098
0.4567778 	 9.2727744 	 475.3869 	 1.081 	 53.062
0.4614445 	 9.5465495 	 484.4061 	 1.083 	 53.053
0.4660056 	 9.8269558 	 498.1389 	 1.084 	 53.033
0.4704724 	 10.1107483 	 510.9078 	 1.084 	 53.023
0.4748388 	 10.4013759 	 524.2618 	 1.085 	 53.023
0.4791102 	 10.6893449 	 537.3602 	 1.085 	 53.006
0.4832922 	 10.9840041 	 550.8841 	 1.086 	 53.011
0.4873851 	 11.2837278 	 560.9514 	 1.087 	 52.975
0.4913953 	 11.5844990 	 569.5136 	 1.087 	 52.977
0.4953257 	 11.8890358 	 579.5257 	 1.089 	 52.965
0.4991731 	 12.1979632 	 587.7812 	 1.089 	 52.965
0.5029452 	 12.5084367 	 597.8719 	 1.089 	 52.917
0.5066464 	 12.8303972 	 605.3217 	 1.089 	 52.929
0.5102715 	 13.1504430 	 613.3589 	 1.089 	 52.921
0.5138286 	 13.4797161 	 633.7877 	 1.090 	 52.905
0.5173138 	 13.8111703 	 647.3286 	 1.090 	 52.920
0.5207314 	 14.1416488 	 660.2141 	 1.091 	 52.888
0.5240885 	 14.4756791 	 668.9016 	 1.091 	 52.885
0.5273818 	 14.8171626 	 680.8044 	 1.091 	 52.867
0.5306158 	 15.1622561 	 693.5267 	 1.091 	 52.875
0.5337873 	 15.5093624 	 713.6943 	 1.089 	 52.867
0.5369045 	 15.8599502 	 728.1463 	 1.089 	 52.845
0.5399645 	 16.2201457 	 744.0539 	 1.089 	 52.836
0.5429709 	 16.5807439 	 765.8413 	 1.089 	 52.838
0.5459243 	 16.9456860 	 789.6157 	 1.088 	 52.845
0.5488239 	 17.3085091 	 823.6482 	 1.089 	 52.828
0.5516787 	 17.6757371 	 868.8086 	 1.088 	 52.808
0.5544816 	 18.0564768 	 938.6526 	 1.087 	 52.815
0.5572367 	 18.4433694 	 1035.8531 	 1.085 	 52.799
0.5599438 	 18.8322734 	 1185.5294 	 1.085 	 52.788
0.5626030 	 19.2334673 	 1406.7339 	 1.084 	 52.793
0.5652189 	 19.6501133 	 1747.3103 	 1.083 	 52.791
0.5677891 	 20.0594734 	 2295.4235 	 1.082 	 52.790
0.5703142 	 20.4775986 	 3159.0444 	 1.081 	 52.782
0.5727929 	 20.9255565 	 4369.0975 	 1.081 	 52.785
0.5752287 	 21.3716063 	 6189.1088 	 1.082 	 52.778
0.5776203 	 21.8255834 	 8963.9649 	 1.081 	 52.776
0.5799706 	 22.3081330 	 12808.3155 	 1.081 	 52.765
0.5822765 	 22.8110563 	 17749.7827 	 1.083 	 52.755
0.5845370 	 23.3339834 	 24194.5845 	 1.084 	 52.747
0.5867522 	 23.8781928 	 32340.4614 	 1.083 	 52.767
0.5889232 	 24.4484455 	 42157.1427 	 1.085 	 52.738
0.5910476 	 25.0498442 	 53311.1159 	 1.084 	 52.720
0.5931260 	 25.6883422 	 65467.8015 	 1.084 	 52.716
0.5951550 	 26.3369920 	 79896.7686 	 1.083 	 52.698
0.5971398 	 27.0311214 	 96356.4190 	 1.080 	 52.657
0.5990770 	 27.7343445 	 116480.4743 	 1.075 	 52.623
0.6009687 	 28.4844485 	 137907.4233 	 1.070 	 52.594
0.6028143 	 29.2596350 	 163962.6317 	 1.062 	 52.551
0.6046142 	 30.0749160 	 193952.7002 	 1.055 	 52.524
0.6063698 	 30.9053508 	 228877.5719 	 1.048 	 52.454
0.6080792 	 31.7855168 	 270676.3376 	 1.039 	 52.385
0.6097452 	 32.7076265 	 313472.8382 	 1.031 	 52.353
0.6113673 	 33.6736729 	 353341.6360 	 1.025 	 52.315
0.6129461 	 34.6876809 	 390166.8792 	 1.020 	 52.276
0.6144796 	 35.7703153 	 416859.5199 	 1.018 	 52.236
0.6159693 	 36.8699598 	 434608.4179 	 1.017 	 52.206
0.6174157 	 38.0595486 	 446064.3729 	 1.017 	 52.192
0.6188184 	 39.2649084 	 448361.7528 	 1.019 	 52.161
0.6201799 	 40.5593033 	 439109.6853 	 1.023 	 52.187
0.6214992 	 41.8808616 	 417941.7545 	 1.029 	 52.189
0.6227796 	 43.2357170 	 389035.1497 	 1.036 	 52.203
0.6240222 	 44.6122858 	 357489.1198 	 1.045 	 52.215
0.6252277 	 46.0220090 	 325560.4430 	 1.055 	 52.234
0.6263982 	 47.4596624 	 297101.8499 	 1.065 	 52.278
0.6275340 	 48.8992490 	 275836.7801 	 1.076 	 52.342
0.6286387 	 50.3575380 	 266469.9484 	 1.087 	 52.397
0.6297122 	 51.8477583 	 274927.8434 	 1.100 	 52.462
