N=60 	 R=1000000 	 s=1 	 Save [density, Z, rho_t, like/unlike, events per sweep]
0.0002259 	 1.0008535 	 1.1026 	 1.000 	 7.113
0.0220621 	 1.1832532 	 12.0534 	 0.960 	 35.107
0.0428559 	 1.2259455 	 22.5148 	 0.997 	 47.956
0.0625697 	 1.3035495 	 32.8183 	 1.007 	 51.569
0.0812969 	 1.3962872 	 43.1369 	 1.008 	 52.689
0.0990804 	 1.4966053 	 53.5341 	 1.009 	 53.139
0.1160323 	 1.6043072 	 64.2649 	 1.011 	 53.360
0.1322084 	 1.7184593 	 74.8094 	 1.014 	 53.482
0.1476509 	 1.8362436 	 85.1915 	 1.014 	 53.593
0.1624199 	 1.9618282 	 95.6483 	 1.017 	 53.547
0.1765373 	 2.0917295 	 105.9868 	 1.018 	 53.541
0.1900681 	 2.2265666 	 116.0913 	 1.021 	 53.520
0.2030419 	 2.3655166 	 125.3203 	 1.023 	 53.519
0.2155061 	 2.5091662 	 135.0276 	 1.025 	 53.489
0.2274759 	 2.6568652 	 145.2670 	 1.027 	 53.474
0.2389885 	 2.8091330 	 155.7806 	 1.029 	 53.446
0.2500727 	 2.9662214 	 165.3072 	 1.031 	 53.450
0.2607497 	 3.1263117 	 176.9325 	 1.033 	 53.443
0.2710401 	 3.2916383 	 186.5019 	 1.035 	 53.417
0.2809684 	 3.4614005 	 195.6875 	 1.037 	 53.417
0.2905522 	 3.6338072 	 204.6154 	 1.039 	 53.411
0.2998251 	 3.8117499 	 214.8516 	 1.041 	 53.384
0.3087945 	 3.9925969 	 226.4999 	 1.042 	 53.370
0.3174795 	 4.1786475 	 236.5951 	 1.044 	 53.344
0.3258772 	 4.3683595 	 246.0243 	 1.046 	 53.345
0.3340134 	 4.5639127 	 256.3585 	 1.049 	 53.324
0.3419030 	 4.7607503 	 268.8439 	 1.050 	 53.310
0.3495584 	 4.9628559 	 278.2464 	 1.052 	 53.278
0.3569857 	 5.1700900 	 288.7872 	 1.055 	 53.282
0.3641978 	 5.3786346 	 299.9711 	 1.056 	 53.265
0.3712089 	 5.5924922 	 309.0240 	 1.058 	 53.263
0.3780256 	 5.8104640 	 321.5264 	 1.060 	 53.248
0.3846480 	 6.0313378 	 334.0080 	 1.061 	 53.232
0.3910939 	 6.2593711 	 343.3081 	 1.064 	 53.221
0.3973665 	 6.4901637 	 354.2098 	 1.065 	 53.198
0.4034753 	 6.7243388 	 365.6059 	 1.067 	 53.196
0.4094213 	 6.9624580 	 377.0234 	 1.069 	 53.175
0.4152183 	 7.2030168 	 384.1544 	 1.070 	 53.172
0.4208722 	 7.4486439 	 393.4041 	 1.072 	 53.147
0.4263814 	 7.6964636 	 406.3031 	 1.073 	 53.138
0.4317617 	 7.9472735 	 415.5954 	 1.074 	 53.116
0.4370065 	 8.2053290 	 429.3498 	 1.075 	 53.100
0.4421247 	 8.4694446 	 440.0446 	 1.076 	 53.088
0.4471255 	 8.7340127 	 450.4195 	 1.078 	 53.094
0.4520097 	 9.0017933 	 460.1042 	 1.079 	 53.082
0.4567835 	 9.2755517 	 469.3956 	 1.081 	 53.067
0.4614502 	 9.5500554 	 478.9175 	 1.082 	 53.048
0.4660129 	 9.8271399 	 491.7027 	 1.082 	 53.034
0.4704736 	 10.1135407 	 501.3142 	 1.084 	 53.055
0.4748396 	 10.4003237 	 512.6686 	 1.084 	 53.021
0.4791111 	 10.6867769 	 524.1132 	 1.085 	 52.975
0.4832956 	 10.9844522 	 534.6307 	 1.086 	 52.988
0.4873891 	 11.2853115 	 547.4014 	 1.086 	 53.007
0.4914004 	 11.5858944 	 554.0668 	 1.087 	 52.995
0.4953255 	 11.8901396 	 565.4437 	 1.088 	 52.964
0.4991707 	 12.1997690 	 573.6014 	 1.088 	 52.948
0.5029406 	 12.5137991 	 583.3058 	 1.089 	 52.941
0.5066388 	 12.8299002 	 591.7672 	 1.089 	 52.925
0.5102646 	 13.1552796 	 602.4933 	 1.089 	 52.930
0.5138209 	 13.4820700 	 612.7047 	 1.089 	 52.931
0.5173072 	 13.8141141 	 624.1196 	 1.090 	 52.923
0.5207279 	 14.1414670 	 635.0770 	 1.089 	 52.916
0.5240835 	 14.4757856 	 647.8007 	 1.090 	 52.894
0.5273773 	 14.8199837 	 663.2553 	 1.090 	 52.897
0.5306109 	 15.1582352 	 676.9727 	 1.088 	 52.875
0.5337856 	 15.5018641 	 691.9580 	 1.088 	 52.877
0.5369045 	 15.8558277 	 710.8066 	 1.089 	 52.849
0.5399662 	 16.2142183 	 727.1119 	 1.088 	 52.834
0.5429717 	 16.5754314 	 751.1281 	 1.088 	 52.823
0.5459248 	 16.9465228 	 775.3021 	 1.087 	 52.841
0.5488284 	 17.3077026 	 811.3150 	 1.087 	 52.838
0.5516815 	 17.6796923 	 861.3433 	 1.087 	 52.811
0.5544828 	 18.0491448 	 929.4545 	 1.088 	 52.809
0.5572409 	 18.4325457 	 1025.3051 	 1.086 	 52.810
0.5599508 	 18.8150734 	 1156.6566 	 1.087 	 52.812
0.5626162 	 19.2019824 	 1372.2163 	 1.087 	 52.789
0.5652365 	 19.6047099 	 1671.6885 	 1.087 	 52.790
0.5678125 	 20.0225124 	 2135.6987 	 1.087 	 52.799
0.5703423 	 20.4436844 	 2761.2260 	 1.086 	 52.778
0.5728252 	 20.9012293 	 3613.2064 	 1.085 	 52.791
0.5752649 	 21.3444836 	 4798.4204 	 1.086 	 52.764
0.5776596 	 21.8316853 	 6352.0409 	 1.087 	 52.771
0.5800073 	 22.3288524 	 8613.6764 	 1.087 	 52.765
0.5823091 	 22.8366089 	 11711.5268 	 1.086 	 52.740
0.5845637 	 23.3810584 	 15788.2749 	 1.086 	 52.734
0.5867744 	 23.9412410 	 20944.0464 	 1.085 	 52.731
0.5889370 	 24.5255829 	 28466.9250 	 1.085 	 52.740
0.5910547 	 25.1285157 	 38909.2025 	 1.083 	 52.716
0.5931246 	 25.7616417 	 51803.9168 	 1.081 	 52.719
0.5951508 	 26.4108654 	 68236.4332 	 1.080 	 52.694
0.5971297 	 27.0933182 	 87045.7433 	 1.079 	 52.686
0.5990628 	 27.8131959 	 107389.1924 	 1.078 	 52.674
0.6009505 	 28.5549790 	 127902.1122 	 1.076 	 52.681
0.6027919 	 29.3330825 	 148492.1158 	 1.076 	 52.674
0.6045886 	 30.1457177 	 170467.2505 	 1.075 	 52.681
0.6063391 	 30.9734278 	 188391.6467 	 1.074 	 52.666
0.6080464 	 31.8498709 	 204461.9179 	 1.073 	 52.661
0.6097096 	 32.7636282 	 214611.0806 	 1.073 	 52.667
0.6113292 	 33.7112360 	 221658.1309 	 1.072 	 52.684
0.6129057 	 34.6802857 	 227586.0824 	 1.071 	 52.656
0.6144402 	 35.7111874 	 230733.4105 	 1.072 	 52.690
0.6159329 	 36.7629260 	 233572.2302 	 1.072 	 52.674
0.6173840 	 37.8989939 	 236127.3973 	 1.072 	 52.693
0.6187942 	 39.0735501 	 239411.7347 	 1.073 	 52.693
0.6201648 	 40.3062325 	 241634.6412 	 1.075 	 52.718
0.6214952 	 41.5630853 	 244878.7928 	 1.076 	 52.713
0.6227850 	 42.8729175 	 248047.3710 	 1.078 	 52.710
0.6240378 	 44.2493353 	 253516.8348 	 1.080 	 52.688
0.6252521 	 45.6877861 	 258773.8276 	 1.082 	 52.685
0.6264302 	 47.1782121 	 265042.2296 	 1.085 	 52.676
0.6275717 	 48.7632544 	 271770.4180 	 1.088 	 52.721
0.6286783 	 50.3468997 	 278247.1787 	 1.091 	 52.685
0.6297501 	 52.0516720 	 286203.3399 	 1.094 	 52.669
