N=60 	 R=1000000 	 s=1 	 Save [density, Z, rho_t, like/unlike, events per sweep]
0.0002269 	 1.0008599 	 1.1027 	 0.992 	 7.113
0.0220532 	 1.1832540 	 11.9618 	 0.960 	 35.146
0.0428533 	 1.2259915 	 22.4477 	 0.998 	 47.982
0.0625699 	 1.3034236 	 33.0899 	 1.006 	 51.561
0.0812741 	 1.3957899 	 43.4447 	 1.008 	 52.639
0.0990729 	 1.4965118 	 54.2384 	 1.009 	 53.115
0.1160293 	 1.6042293 	 64.7583 	 1.011 	 53.373
0.1321999 	 1.7181710 	 74.9616 	 1.014 	 53.447
0.1476421 	 1.8365302 	 85.9460 	 1.014 	 53.597
0.1624063 	 1.9616642 	 96.7899 	 1.017 	 53.555
0.1765337 	 2.0915669 	 107.1774 	 1.018 	 53.555
0.1900733 	 2.2268455 	 117.2328 	 1.021 	 53.535
0.2030418 	 2.3653878 	 127.6246 	 1.024 	 53.499
0.2154981 	 2.5086917 	 138.5492 	 1.025 	 53.491
0.2274599 	 2.6567581 	 149.2657 	 1.027 	 53.486
0.2389695 	 2.8092496 	 161.2820 	 1.029 	 53.468
0.2500522 	 2.9653530 	 172.3143 	 1.031 	 53.450
0.2607260 	 3.1255390 	 183.5381 	 1.033 	 53.409
0.2710259 	 3.2911243 	 193.3057 	 1.035 	 53.426
0.2809575 	 3.4593173 	 203.5487 	 1.036 	 53.384
0.2905502 	 3.6334902 	 216.5452 	 1.038 	 53.390
0.2998266 	 3.8118348 	 226.5679 	 1.040 	 53.376
0.3087898 	 3.9928050 	 238.2981 	 1.042 	 53.364
0.3174640 	 4.1775477 	 247.4692 	 1.045 	 53.343
0.3258673 	 4.3690588 	 257.0044 	 1.047 	 53.356
0.3340038 	 4.5645018 	 269.0042 	 1.049 	 53.361
0.3418966 	 4.7609184 	 279.1882 	 1.050 	 53.317
0.3495592 	 4.9630189 	 290.8636 	 1.052 	 53.308
0.3569859 	 5.1678366 	 301.3294 	 1.054 	 53.267
0.3642022 	 5.3779733 	 311.3102 	 1.056 	 53.259
0.3712101 	 5.5926447 	 322.2690 	 1.058 	 53.256
0.3780205 	 5.8108612 	 330.4945 	 1.060 	 53.248
0.3846481 	 6.0345139 	 341.2909 	 1.062 	 53.250
0.3910920 	 6.2586845 	 353.9611 	 1.063 	 53.234
0.3973636 	 6.4891724 	 363.1765 	 1.066 	 53.195
0.4034635 	 6.7207353 	 374.4858 	 1.066 	 53.183
0.4094099 	 6.9619969 	 387.0870 	 1.069 	 53.181
0.4152088 	 7.2010528 	 395.0531 	 1.070 	 53.161
0.4208595 	 7.4478138 	 404.7594 	 1.071 	 53.147
0.4263706 	 7.6969836 	 414.5021 	 1.073 	 53.144
0.4317485 	 7.9491239 	 422.7604 	 1.074 	 53.128
0.4369949 	 8.2077479 	 435.2683 	 1.076 	 53.119
0.4421137 	 8.4651073 	 444.6160 	 1.076 	 53.076
0.4471136 	 8.7308043 	 453.2019 	 1.078 	 53.078
0.4520026 	 9.0023623 	 462.1452 	 1.080 	 53.088
0.4567737 	 9.2730098 	 469.5200 	 1.080 	 53.067
0.4614409 	 9.5480687 	 478.3342 	 1.080 	 53.059
0.4660008 	 9.8291644 	 490.1506 	 1.082 	 53.030
0.4704653 	 10.1091458 	 501.3211 	 1.083 	 53.018
0.4748357 	 10.4005326 	 509.8226 	 1.085 	 53.036
0.4791073 	 10.6899826 	 520.0886 	 1.085 	 53.008
0.4832921 	 10.9888255 	 532.6952 	 1.086 	 53.015
0.4873908 	 11.2822091 	 545.1799 	 1.086 	 52.987
0.4914006 	 11.5836279 	 560.3800 	 1.087 	 52.975
0.4953273 	 11.8882538 	 571.0844 	 1.089 	 52.965
0.4991791 	 12.2017277 	 582.6037 	 1.090 	 52.957
0.5029525 	 12.5137009 	 595.7476 	 1.090 	 52.960
0.5066506 	 12.8310683 	 608.8503 	 1.090 	 52.946
0.5102772 	 13.1510500 	 619.0936 	 1.090 	 52.916
0.5138340 	 13.4799839 	 630.6876 	 1.090 	 52.909
0.5173218 	 13.8029827 	 640.6808 	 1.091 	 52.900
0.5207416 	 14.1406681 	 654.2249 	 1.092 	 52.902
0.5240975 	 14.4777376 	 668.9382 	 1.092 	 52.886
0.5273933 	 14.8196717 	 685.0469 	 1.092 	 52.886
0.5306251 	 15.1601960 	 698.9143 	 1.091 	 52.847
0.5337985 	 15.5170597 	 715.2895 	 1.092 	 52.864
0.5369141 	 15.8585081 	 729.0587 	 1.091 	 52.853
0.5399733 	 16.2189928 	 750.1758 	 1.091 	 52.834
0.5429778 	 16.5850642 	 776.8513 	 1.090 	 52.845
0.5459302 	 16.9587055 	 811.0337 	 1.089 	 52.853
0.5488284 	 17.3333374 	 854.9362 	 1.088 	 52.819
0.5516758 	 17.6979671 	 904.8327 	 1.086 	 52.817
0.5544778 	 18.0798637 	 974.6339 	 1.085 	 52.809
0.5572276 	 18.4649865 	 1075.0222 	 1.085 	 52.816
0.5599318 	 18.8595955 	 1208.2072 	 1.083 	 52.788
0.5625875 	 19.2582603 	 1401.8377 	 1.083 	 52.797
0.5652011 	 19.6626172 	 1713.0290 	 1.082 	 52.800
0.5677690 	 20.0772825 	 2161.2517 	 1.082 	 52.810
0.5702928 	 20.4945312 	 2812.8303 	 1.080 	 52.780
0.5727708 	 20.9336586 	 3758.7079 	 1.080 	 52.784
0.5752046 	 21.3862033 	 5085.5507 	 1.081 	 52.792
0.5775940 	 21.8513269 	 7078.5450 	 1.080 	 52.780
0.5799407 	 22.3410669 	 9575.5167 	 1.079 	 52.800
0.5822412 	 22.8588081 	 12839.4325 	 1.079 	 52.793
0.5844949 	 23.4030295 	 16772.6258 	 1.078 	 52.809
0.5867013 	 23.9710338 	 21291.7805 	 1.077 	 52.794
0.5888594 	 24.5802586 	 27151.0784 	 1.077 	 52.800
0.5909705 	 25.2063460 	 33611.5400 	 1.076 	 52.792
0.5930324 	 25.8628170 	 41006.3339 	 1.074 	 52.786
0.5950481 	 26.5552872 	 49196.2457 	 1.071 	 52.806
0.5970140 	 27.2758182 	 57478.8532 	 1.069 	 52.798
0.5989328 	 28.0164315 	 67034.9689 	 1.065 	 52.811
0.6008031 	 28.7760380 	 77285.6700 	 1.058 	 52.831
0.6026294 	 29.5615689 	 88959.5674 	 1.049 	 52.838
0.6044113 	 30.3443861 	 102496.2487 	 1.039 	 52.863
0.6061507 	 31.1575897 	 120976.6668 	 1.027 	 52.886
0.6078487 	 31.9719491 	 145078.1123 	 1.014 	 52.907
0.6095071 	 32.7786121 	 181102.8377 	 0.999 	 52.920
0.6111282 	 33.6107533 	 229961.9660 	 0.983 	 52.979
0.6127113 	 34.4520506 	 290541.5884 	 0.970 	 52.978
0.6142589 	 35.3575148 	 357764.6758 	 0.958 	 53.025
0.6157696 	 36.3049652 	 431299.3784 	 0.948 	 53.067
0.6172412 	 37.3006722 	 501203.2307 	 0.940 	 53.073
0.6186749 	 38.3743739 	 565495.2413 	 0.936 	 53.074
0.6200714 	 39.5257122 	 622807.8450 	 0.933 	 53.098
0.6214266 	 40.7484621 	 666097.5146 	 0.932 	 53.090
0.6227440 	 42.0192806 	 707622.7107 	 0.932 	 53.094
0.6240225 	 43.3787639 	 742625.7278 	 0.932 	 53.108
0.6252623 	 44.7783967 	 772804.3965 	 0.934 	 53.080
0.6264646 	 46.2488978 	 800228.6356 	 0.935 	 53.103
0.6276293 	 47.7794087 	 823361.9382 	 0.936 	 53.073
0.6287589 	 49.3615113 	 847688.0830 	 0.938 	 53.064
0.6298539 	 51.0377190 	 867691.0356 	 0.940 	 53.077
