N=60 	 R=1000000 	 s=1 	 Save [density, Z, rho_t, like/unlike, events per sweep]
0.0002256 	 1.0008550 	 1.1027 	 0.987 	 7.113
0.0220711 	 1.1831925 	 12.0161 	 0.960 	 35.144
0.0428792 	 1.2261225 	 22.7297 	 0.998 	 47.984
0.0625966 	 1.3035407 	 33.2504 	 1.006 	 51.552
0.0812916 	 1.3960444 	 43.9782 	 1.008 	 52.644
0.0990842 	 1.4965656 	 54.3317 	 1.010 	 53.123
0.1160339 	 1.6044544 	 64.9737 	 1.011 	 53.393
0.1322032 	 1.7180535 	 75.3888 	 1.013 	 53.457
0.1476534 	 1.8365059 	 86.2960 	 1.014 	 53.598
0.1624100 	 1.9620965 	 96.0879 	 1.017 	 53.578
0.1765255 	 2.0913154 	 106.9389 	 1.019 	 53.526
0.1900610 	 2.2268198 	 116.7857 	 1.022 	 53.542
0.2030355 	 2.3657158 	 126.4500 	 1.023 	 53.531
0.2154876 	 2.5091223 	 136.6520 	 1.026 	 53.506
0.2274569 	 2.6568411 	 147.3326 	 1.027 	 53.481
0.2389740 	 2.8095072 	 156.9070 	 1.029 	 53.479
0.2500538 	 2.9656773 	 167.9733 	 1.031 	 53.442
0.2607363 	 3.1264469 	 179.0051 	 1.034 	 53.453
0.2710280 	 3.2917630 	 190.6466 	 1.035 	 53.424
0.2809577 	 3.4596443 	 202.4854 	 1.037 	 53.408
0.2905535 	 3.6327290 	 213.0263 	 1.039 	 53.376
0.2998285 	 3.8118040 	 224.9126 	 1.041 	 53.368
0.3087927 	 3.9941822 	 237.3984 	 1.042 	 53.409
0.3174748 	 4.1796859 	 248.6174 	 1.044 	 53.375
0.3258808 	 4.3696899 	 259.4237 	 1.047 	 53.353
0.3340212 	 4.5616227 	 271.4428 	 1.049 	 53.312
0.3419167 	 4.7623517 	 282.0576 	 1.051 	 53.327
0.3495661 	 4.9635736 	 292.7660 	 1.052 	 53.317
0.3569940 	 5.1692748 	 302.1633 	 1.054 	 53.298
0.3642065 	 5.3806401 	 311.0417 	 1.056 	 53.295
0.3712190 	 5.5931998 	 320.3127 	 1.058 	 53.251
0.3780310 	 5.8127836 	 331.1382 	 1.060 	 53.272
0.3846534 	 6.0340434 	 344.0476 	 1.062 	 53.227
0.3910973 	 6.2586766 	 355.1778 	 1.063 	 53.207
0.3973734 	 6.4909037 	 368.4851 	 1.066 	 53.219
0.4034873 	 6.7251706 	 379.9235 	 1.067 	 53.194
0.4094342 	 6.9628892 	 390.1759 	 1.068 	 53.192
0.4152299 	 7.2025738 	 400.5793 	 1.069 	 53.150
0.4208803 	 7.4495284 	 412.3742 	 1.073 	 53.147
0.4263911 	 7.6969064 	 422.3582 	 1.073 	 53.128
0.4317687 	 7.9529349 	 432.2441 	 1.074 	 53.137
0.4370178 	 8.2104968 	 442.1056 	 1.076 	 53.106
0.4421378 	 8.4682117 	 453.4395 	 1.077 	 53.104
0.4471395 	 8.7321287 	 464.4554 	 1.079 	 53.074
0.4520262 	 9.0046060 	 474.8158 	 1.079 	 53.088
0.4568028 	 9.2756791 	 482.3740 	 1.080 	 53.049
0.4614691 	 9.5467460 	 495.1387 	 1.081 	 53.032
0.4660313 	 9.8319549 	 504.3919 	 1.082 	 53.057
0.4704951 	 10.1146531 	 516.1270 	 1.083 	 53.032
0.4748586 	 10.3985574 	 529.3647 	 1.084 	 53.027
0.4791314 	 10.6941346 	 540.5586 	 1.086 	 53.007
0.4833128 	 10.9887402 	 550.5995 	 1.087 	 53.004
0.4874054 	 11.2837693 	 557.7893 	 1.086 	 53.003
0.4914136 	 11.5857619 	 571.0283 	 1.089 	 52.984
0.4953388 	 11.8911009 	 580.6512 	 1.090 	 52.954
0.4991898 	 12.2007422 	 593.2946 	 1.090 	 52.952
0.5029619 	 12.5171889 	 609.3829 	 1.090 	 52.958
0.5066578 	 12.8341873 	 617.7555 	 1.089 	 52.938
0.5102813 	 13.1525160 	 624.8343 	 1.091 	 52.920
0.5138340 	 13.4756435 	 640.5738 	 1.090 	 52.909
0.5173192 	 13.8081601 	 650.7541 	 1.091 	 52.908
0.5207387 	 14.1400466 	 657.3355 	 1.091 	 52.880
0.5240935 	 14.4800507 	 676.2030 	 1.092 	 52.892
0.5273859 	 14.8221298 	 687.1845 	 1.092 	 52.868
0.5306175 	 15.1689983 	 703.1237 	 1.091 	 52.869
0.5337918 	 15.5138681 	 716.9456 	 1.091 	 52.868
0.5369085 	 15.8629650 	 729.1363 	 1.090 	 52.837
0.5399690 	 16.2162782 	 751.1060 	 1.090 	 52.838
0.5429784 	 16.5782529 	 777.1854 	 1.090 	 52.844
0.5459307 	 16.9380079 	 809.7378 	 1.089 	 52.826
0.5488330 	 17.3064889 	 856.6146 	 1.089 	 52.842
0.5516860 	 17.6753981 	 916.5404 	 1.088 	 52.807
0.5544906 	 18.0424330 	 1014.2612 	 1.088 	 52.792
0.5572475 	 18.4180961 	 1194.2102 	 1.087 	 52.807
0.5599586 	 18.7963047 	 1540.7494 	 1.086 	 52.805
0.5626251 	 19.1664164 	 2346.1743 	 1.086 	 52.810
0.5652517 	 19.5458627 	 4042.0936 	 1.086 	 52.781
0.5678362 	 19.9092139 	 7896.1502 	 1.089 	 52.790
0.5703848 	 20.2612477 	 16412.1377 	 1.094 	 52.791
0.5728996 	 20.6041097 	 33845.3506 	 1.099 	 52.770
0.5753822 	 20.9433450 	 64820.9421 	 1.109 	 52.734
0.5778328 	 21.2899410 	 116625.5741 	 1.121 	 52.725
0.5802501 	 21.6584793 	 186887.0662 	 1.134 	 52.675
0.5826333 	 22.0756836 	 273393.0789 	 1.150 	 52.688
0.5849765 	 22.5240497 	 367757.4748 	 1.166 	 52.643
0.5872754 	 23.0378425 	 454543.0255 	 1.182 	 52.610
0.5895294 	 23.6108342 	 524653.2993 	 1.194 	 52.601
0.5917308 	 24.2437271 	 580145.6123 	 1.207 	 52.574
0.5938805 	 24.9149461 	 615058.1814 	 1.219 	 52.559
0.5959761 	 25.6342459 	 634273.3802 	 1.227 	 52.552
0.5980183 	 26.3794503 	 634030.2722 	 1.233 	 52.559
0.6000059 	 27.1517566 	 622047.6594 	 1.241 	 52.543
0.6019400 	 27.9632661 	 598136.2754 	 1.246 	 52.531
0.6038226 	 28.7912970 	 563445.0761 	 1.250 	 52.571
0.6056563 	 29.6307703 	 523083.2659 	 1.253 	 52.609
0.6074408 	 30.4747903 	 490123.0000 	 1.256 	 52.648
0.6091799 	 31.3477966 	 471457.3325 	 1.258 	 52.716
0.6108757 	 32.1992331 	 472777.4461 	 1.259 	 52.756
0.6125292 	 33.0882373 	 499682.2815 	 1.260 	 52.832
0.6141395 	 34.0189594 	 550862.7141 	 1.261 	 52.905
0.6157089 	 34.9837554 	 618262.7199 	 1.264 	 53.002
0.6172366 	 36.0093669 	 691889.8827 	 1.266 	 53.028
0.6187229 	 37.0976454 	 762218.1038 	 1.270 	 53.069
0.6201667 	 38.2478424 	 823503.8474 	 1.274 	 53.107
0.6215688 	 39.4895569 	 872664.0729 	 1.279 	 53.138
0.6229280 	 40.7776200 	 909790.6912 	 1.286 	 53.160
0.6242448 	 42.1541507 	 937912.3468 	 1.292 	 53.161
0.6255210 	 43.5665920 	 957656.4920 	 1.300 	 53.121
0.6267569 	 45.1091951 	 968729.1711 	 1.307 	 53.157
0.6279523 	 46.6771366 	 977474.1810 	 1.314 	 53.143
0.6291080 	 48.3073131 	 983089.0867 	 1.324 	 53.131
