N=60 	 R=1000000 	 s=1 	 Save [density, Z, rho_t, like/unlike, events per sweep]
0.0002256 	 1.0008533 	 1.1027 	 0.999 	 7.113
0.0220446 	 1.1833289 	 11.9851 	 0.961 	 35.130
0.0428404 	 1.2259206 	 22.5859 	 0.998 	 47.976
0.0625757 	 1.3035753 	 33.1518 	 1.006 	 51.558
0.0812850 	 1.3961313 	 43.4694 	 1.008 	 52.631
0.0990735 	 1.4967522 	 53.7933 	 1.010 	 53.149
0.1160298 	 1.6044236 	 64.2537 	 1.011 	 53.372
0.1322071 	 1.7182350 	 74.5030 	 1.013 	 53.470
0.1476501 	 1.8365219 	 85.1537 	 1.015 	 53.592
0.1624014 	 1.9615630 	 95.3721 	 1.016 	 53.560
0.1765316 	 2.0918155 	 105.9807 	 1.020 	 53.553
0.1900594 	 2.2262773 	 116.9342 	 1.021 	 53.519
0.2030359 	 2.3658647 	 127.3968 	 1.023 	 53.536
0.2154966 	 2.5088552 	 137.8006 	 1.025 	 53.479
0.2274711 	 2.6575513 	 148.0371 	 1.027 	 53.496
0.2389838 	 2.8090776 	 158.0452 	 1.029 	 53.463
0.2500625 	 2.9650380 	 168.3101 	 1.032 	 53.454
0.2607341 	 3.1258287 	 179.8266 	 1.033 	 53.434
0.2710390 	 3.2915660 	 191.5816 	 1.036 	 53.423
0.2809729 	 3.4601874 	 201.0605 	 1.036 	 53.381
0.2905641 	 3.6335913 	 211.4608 	 1.039 	 53.393
0.2998390 	 3.8119566 	 222.9565 	 1.041 	 53.384
0.3088070 	 3.9935548 	 233.7921 	 1.043 	 53.372
0.3174883 	 4.1789271 	 246.0258 	 1.045 	 53.356
0.3258875 	 4.3703662 	 255.8898 	 1.047 	 53.358
0.3340205 	 4.5645091 	 264.6360 	 1.049 	 53.349
0.3419084 	 4.7605953 	 274.9595 	 1.051 	 53.309
0.3495644 	 4.9634587 	 288.0873 	 1.052 	 53.296
0.3569899 	 5.1698369 	 298.5462 	 1.055 	 53.282
0.3642094 	 5.3784974 	 308.7781 	 1.056 	 53.253
0.3712150 	 5.5935179 	 317.8809 	 1.058 	 53.276
0.3780313 	 5.8137842 	 327.4554 	 1.060 	 53.263
0.3846525 	 6.0342304 	 338.6432 	 1.062 	 53.243
0.3910982 	 6.2590962 	 348.7686 	 1.064 	 53.214
0.3973709 	 6.4895700 	 356.3450 	 1.065 	 53.207
0.4034715 	 6.7234285 	 364.9988 	 1.066 	 53.192
0.4094182 	 6.9605738 	 372.6593 	 1.068 	 53.199
0.4152160 	 7.2006260 	 384.6189 	 1.070 	 53.161
0.4208738 	 7.4478138 	 393.2484 	 1.071 	 53.167
0.4263853 	 7.6970695 	 406.8912 	 1.072 	 53.140
0.4317635 	 7.9531101 	 418.4846 	 1.073 	 53.139
0.4370077 	 8.2063543 	 429.1771 	 1.075 	 53.095
0.4421350 	 8.4683940 	 441.4087 	 1.076 	 53.103
0.4471390 	 8.7349438 	 452.6347 	 1.078 	 53.092
0.4520282 	 9.0051419 	 463.4465 	 1.080 	 53.084
0.4568038 	 9.2758796 	 475.4255 	 1.080 	 53.065
0.4614693 	 9.5484620 	 483.1881 	 1.082 	 53.041
0.4660318 	 9.8289732 	 493.2879 	 1.083 	 53.028
0.4704923 	 10.1152232 	 507.2107 	 1.083 	 53.044
0.4748582 	 10.4022885 	 511.5100 	 1.084 	 53.022
0.4791308 	 10.6900135 	 519.7915 	 1.085 	 53.002
0.4833152 	 10.9910649 	 527.9592 	 1.086 	 53.011
0.4874107 	 11.2845459 	 534.9751 	 1.086 	 52.982
0.4914243 	 11.5839031 	 548.7355 	 1.088 	 52.974
0.4953535 	 11.8925122 	 559.4958 	 1.088 	 52.974
0.4992015 	 12.2030997 	 576.5141 	 1.090 	 52.953
0.5029744 	 12.5167484 	 589.3239 	 1.090 	 52.958
0.5066691 	 12.8393427 	 596.2116 	 1.091 	 52.942
0.5102957 	 13.1617191 	 605.7320 	 1.091 	 52.928
0.5138466 	 13.4838525 	 614.2973 	 1.092 	 52.904
0.5173309 	 13.8116030 	 625.2408 	 1.092 	 52.904
0.5207501 	 14.1461370 	 640.8468 	 1.092 	 52.918
0.5241061 	 14.4769728 	 656.5932 	 1.092 	 52.868
0.5274008 	 14.8209109 	 670.0404 	 1.092 	 52.887
0.5306325 	 15.1572006 	 686.6266 	 1.091 	 52.857
0.5338044 	 15.5151322 	 702.2183 	 1.092 	 52.859
0.5369200 	 15.8595883 	 720.3532 	 1.091 	 52.843
0.5399817 	 16.2164049 	 742.6495 	 1.091 	 52.837
0.5429910 	 16.5833782 	 762.4907 	 1.090 	 52.845
0.5459419 	 16.9541183 	 792.8754 	 1.090 	 52.853
0.5488418 	 17.3163805 	 829.4732 	 1.088 	 52.820
0.5516922 	 17.6971774 	 882.5111 	 1.090 	 52.837
0.5544937 	 18.0724361 	 951.5021 	 1.088 	 52.814
0.5572453 	 18.4573662 	 1046.4551 	 1.089 	 52.820
0.5599497 	 18.8432511 	 1176.1422 	 1.089 	 52.806
0.5626085 	 19.2397896 	 1364.9112 	 1.088 	 52.800
0.5652255 	 19.6521147 	 1607.5714 	 1.087 	 52.803
0.5677935 	 20.0701271 	 1935.4095 	 1.086 	 52.787
0.5703155 	 20.5067494 	 2350.0393 	 1.087 	 52.780
0.5727926 	 20.9476754 	 2898.6350 	 1.085 	 52.792
0.5752258 	 21.4145963 	 3646.7382 	 1.086 	 52.791
0.5776116 	 21.8872996 	 4638.8187 	 1.086 	 52.800
0.5799537 	 22.3779537 	 5835.3429 	 1.086 	 52.804
0.5822501 	 22.8872406 	 7394.5800 	 1.086 	 52.816
0.5845001 	 23.4092301 	 9485.8176 	 1.083 	 52.800
0.5867094 	 23.9418993 	 12605.7389 	 1.080 	 52.806
0.5888746 	 24.4772635 	 17131.7681 	 1.074 	 52.835
0.5909964 	 25.0281046 	 23661.4970 	 1.067 	 52.838
0.5930781 	 25.6044825 	 32775.8683 	 1.058 	 52.865
0.5951190 	 26.1804868 	 45845.3088 	 1.048 	 52.863
0.5971201 	 26.7835537 	 62340.2626 	 1.036 	 52.917
0.5990807 	 27.4055637 	 81524.5508 	 1.025 	 52.925
0.6009993 	 28.0767414 	 102670.1264 	 1.013 	 52.955
0.6028757 	 28.7924781 	 124798.4781 	 1.002 	 52.959
0.6047082 	 29.5531450 	 145320.0439 	 0.993 	 52.981
0.6064963 	 30.3552246 	 165989.1625 	 0.984 	 52.990
0.6082415 	 31.2085740 	 184906.5525 	 0.976 	 52.986
0.6099402 	 32.1269249 	 201215.7523 	 0.970 	 53.029
0.6115938 	 33.0658511 	 216349.4473 	 0.963 	 53.008
0.6132014 	 34.0684604 	 230822.6938 	 0.957 	 53.023
0.6147636 	 35.1115799 	 244256.6866 	 0.951 	 53.003
0.6162812 	 36.1995728 	 258222.4084 	 0.945 	 53.035
0.6177560 	 37.3335442 	 271610.3372 	 0.939 	 53.037
0.6191877 	 38.5030944 	 288411.5679 	 0.931 	 53.003
0.6205783 	 39.7246927 	 306414.2522 	 0.923 	 53.034
0.6219279 	 40.9887482 	 324829.1326 	 0.917 	 53.025
0.6232367 	 42.2699597 	 346404.0408 	 0.909 	 53.009
0.6245083 	 43.6316382 	 371758.7395 	 0.901 	 53.026
0.6257425 	 45.0295285 	 396088.6436 	 0.893 	 53.017
0.6269388 	 46.4762545 	 424058.2604 	 0.885 	 53.042
0.6280995 	 47.9974421 	 452498.3947 	 0.879 	 53.042
0.6292251 	 49.5756882 	 482291.3129 	 0.872 	 53.023
