N=60 	 R=1000000 	 s=1 	 Save [density, Z, rho_t, like/unlike, events per sweep]
0.0002258 	 1.0008536 	 1.1027 	 0.980 	 7.113
0.0220615 	 1.1832501 	 12.0409 	 0.960 	 35.132
0.0428554 	 1.2260045 	 22.5876 	 0.998 	 47.964
0.0625828 	 1.3034712 	 33.1613 	 1.006 	 51.525
0.0812993 	 1.3961903 	 43.7952 	 1.008 	 52.672
0.0990934 	 1.4968236 	 54.5831 	 1.010 	 53.151
0.1160515 	 1.6042001 	 64.5338 	 1.011 	 53.350
0.1322243 	 1.7183689 	 74.7688 	 1.013 	 53.481
0.1476776 	 1.8364037 	 84.9213 	 1.014 	 53.587
0.1624395 	 1.9620961 	 96.0710 	 1.017 	 53.563
0.1765614 	 2.0918328 	 105.9187 	 1.019 	 53.518
0.1900844 	 2.2265171 	 116.3212 	 1.021 	 53.529
0.2030674 	 2.3655657 	 127.9421 	 1.023 	 53.498
0.2155319 	 2.5098553 	 138.0433 	 1.025 	 53.504
0.2274924 	 2.6570575 	 148.2505 	 1.027 	 53.476
0.2390005 	 2.8089981 	 158.1816 	 1.029 	 53.457
0.2500812 	 2.9652550 	 168.7721 	 1.031 	 53.429
0.2607594 	 3.1267938 	 179.1286 	 1.033 	 53.446
0.2710589 	 3.2916267 	 188.9103 	 1.034 	 53.408
0.2809869 	 3.4614641 	 200.0445 	 1.037 	 53.420
0.2905768 	 3.6340430 	 209.5380 	 1.039 	 53.392
0.2998503 	 3.8114807 	 220.3893 	 1.041 	 53.359
0.3088163 	 3.9935996 	 231.5913 	 1.043 	 53.365
0.3174866 	 4.1792702 	 242.4149 	 1.045 	 53.341
0.3258910 	 4.3692507 	 255.3297 	 1.047 	 53.342
0.3340315 	 4.5637072 	 266.1008 	 1.048 	 53.317
0.3419186 	 4.7612724 	 274.3549 	 1.051 	 53.309
0.3495749 	 4.9634821 	 284.6448 	 1.053 	 53.314
0.3570015 	 5.1688496 	 295.4730 	 1.054 	 53.282
0.3642124 	 5.3779409 	 306.8328 	 1.055 	 53.278
0.3712196 	 5.5927433 	 318.8953 	 1.057 	 53.253
0.3780346 	 5.8102300 	 331.5699 	 1.060 	 53.233
0.3846580 	 6.0338596 	 344.6166 	 1.062 	 53.235
0.3911016 	 6.2573420 	 356.5747 	 1.063 	 53.222
0.3973728 	 6.4908096 	 365.8134 	 1.066 	 53.209
0.4034827 	 6.7213605 	 376.9208 	 1.067 	 53.195
0.4094335 	 6.9608924 	 385.8103 	 1.068 	 53.182
0.4152302 	 7.2025122 	 397.5240 	 1.070 	 53.167
0.4208764 	 7.4492715 	 406.0787 	 1.071 	 53.152
0.4263869 	 7.6961118 	 416.8125 	 1.073 	 53.128
0.4317640 	 7.9498196 	 431.0870 	 1.074 	 53.129
0.4370106 	 8.2101606 	 440.9732 	 1.075 	 53.135
0.4421294 	 8.4677603 	 449.0390 	 1.076 	 53.099
0.4471336 	 8.7322509 	 458.7260 	 1.077 	 53.102
0.4520236 	 9.0040610 	 468.8428 	 1.080 	 53.095
0.4567978 	 9.2756223 	 479.5835 	 1.081 	 53.082
0.4614649 	 9.5494438 	 486.0837 	 1.082 	 53.048
0.4660289 	 9.8315131 	 495.2095 	 1.083 	 53.053
0.4704913 	 10.1124395 	 504.9047 	 1.085 	 53.019
0.4748576 	 10.3995245 	 516.5559 	 1.085 	 53.035
0.4791286 	 10.6914691 	 526.5818 	 1.085 	 53.017
0.4833086 	 10.9833412 	 537.8602 	 1.086 	 52.997
0.4874042 	 11.2855833 	 549.6315 	 1.087 	 52.986
0.4914161 	 11.5905265 	 561.4885 	 1.087 	 53.004
0.4953404 	 11.8923482 	 573.0544 	 1.088 	 52.960
0.4991881 	 12.2031486 	 579.2779 	 1.090 	 52.964
0.5029601 	 12.5159603 	 590.7720 	 1.090 	 52.948
0.5066597 	 12.8317191 	 598.3107 	 1.090 	 52.917
0.5102845 	 13.1588071 	 614.6121 	 1.091 	 52.919
0.5138391 	 13.4806414 	 623.6213 	 1.091 	 52.910
0.5173247 	 13.8055062 	 633.3276 	 1.090 	 52.910
0.5207444 	 14.1329049 	 646.9669 	 1.091 	 52.879
0.5241026 	 14.4734146 	 659.5235 	 1.090 	 52.869
0.5273947 	 14.8166851 	 676.5122 	 1.091 	 52.887
0.5306293 	 15.1695417 	 692.2476 	 1.092 	 52.897
0.5338027 	 15.5078093 	 712.0387 	 1.092 	 52.854
0.5369183 	 15.8676803 	 729.8883 	 1.091 	 52.869
0.5399785 	 16.2200675 	 756.4714 	 1.091 	 52.849
0.5429859 	 16.5845024 	 782.9399 	 1.092 	 52.857
0.5459383 	 16.9480472 	 815.9388 	 1.091 	 52.833
0.5488396 	 17.3287488 	 853.1688 	 1.091 	 52.851
0.5516875 	 17.7043110 	 905.5496 	 1.090 	 52.822
0.5544864 	 18.0773813 	 976.7274 	 1.090 	 52.815
0.5572381 	 18.4695827 	 1066.1572 	 1.090 	 52.818
0.5599405 	 18.8615577 	 1213.1290 	 1.087 	 52.820
0.5625981 	 19.2617156 	 1390.1357 	 1.086 	 52.811
0.5652082 	 19.6684033 	 1666.9489 	 1.085 	 52.787
0.5677754 	 20.0789189 	 2127.0692 	 1.082 	 52.797
0.5702962 	 20.4889124 	 2774.2094 	 1.080 	 52.780
0.5727766 	 20.9198160 	 3759.8582 	 1.078 	 52.780
0.5752127 	 21.3690980 	 5095.7183 	 1.076 	 52.782
0.5776063 	 21.8271565 	 7201.3841 	 1.074 	 52.789
0.5799537 	 22.2899543 	 9743.5210 	 1.074 	 52.760
0.5822607 	 22.7855709 	 13127.2582 	 1.073 	 52.776
0.5845242 	 23.2934637 	 17481.3617 	 1.072 	 52.758
0.5867434 	 23.8321012 	 23217.3347 	 1.071 	 52.768
0.5889181 	 24.3806562 	 30420.5664 	 1.070 	 52.743
0.5910487 	 24.9612774 	 38864.9471 	 1.069 	 52.727
0.5931352 	 25.5635030 	 49254.5177 	 1.068 	 52.719
0.5951763 	 26.2014916 	 61405.4049 	 1.064 	 52.722
0.5971720 	 26.8496346 	 77578.9213 	 1.061 	 52.686
0.5991251 	 27.5394613 	 97663.9797 	 1.056 	 52.698
0.6010314 	 28.2458346 	 121472.1675 	 1.048 	 52.685
0.6028954 	 28.9804353 	 149341.1705 	 1.040 	 52.631
0.6047131 	 29.7633855 	 181116.3734 	 1.031 	 52.646
0.6064889 	 30.5815047 	 215188.4468 	 1.024 	 52.632
0.6082199 	 31.4293225 	 251895.1267 	 1.014 	 52.603
0.6099068 	 32.3144772 	 288349.1740 	 1.008 	 52.612
0.6115505 	 33.2483637 	 326151.9899 	 1.000 	 52.601
0.6131509 	 34.2056102 	 352809.6791 	 0.995 	 52.578
0.6147087 	 35.2411618 	 378272.0972 	 0.990 	 52.572
0.6162230 	 36.2730543 	 397423.7002 	 0.987 	 52.538
0.6176958 	 37.3914066 	 409586.1019 	 0.986 	 52.548
0.6191268 	 38.5234974 	 417290.1896 	 0.986 	 52.535
0.6205170 	 39.7210782 	 419781.7655 	 0.986 	 52.536
0.6218670 	 40.9424325 	 420056.3587 	 0.988 	 52.566
0.6231795 	 42.2185187 	 414102.9976 	 0.989 	 52.572
0.6244530 	 43.5407525 	 408809.1010 	 0.993 	 52.564
0.6256895 	 44.8768816 	 403481.4742 	 0.996 	 52.590
0.6268907 	 46.2484201 	 401871.8765 	 1.000 	 52.612
0.6280573 	 47.7145129 	 405339.7562 	 1.002 	 52.648
0.6291903 	 49.1627165 	 415185.7383 	 1.006 	 52.652
