N=60 	 R=1000000 	 s=1 	 Save [density, Z, rho_t, like/unlike, events per sweep]
0.0002254 	 1.0008498 	 1.1027 	 0.987 	 7.112
0.0220768 	 1.1832001 	 11.9759 	 0.960 	 35.146
0.0428731 	 1.2261435 	 22.6551 	 0.998 	 47.978
0.0625908 	 1.3035446 	 33.1553 	 1.007 	 51.558
0.0813141 	 1.3962401 	 43.6338 	 1.008 	 52.642
0.0991064 	 1.4969925 	 54.0075 	 1.010 	 53.139
0.1160568 	 1.6045394 	 64.3995 	 1.011 	 53.372
0.1322420 	 1.7187435 	 75.3133 	 1.013 	 53.471
0.1476710 	 1.8362565 	 85.4323 	 1.014 	 53.566
0.1624265 	 1.9620137 	 95.2827 	 1.016 	 53.553
0.1765527 	 2.0921859 	 105.4827 	 1.019 	 53.548
0.1900896 	 2.2270600 	 116.2998 	 1.021 	 53.529
0.2030601 	 2.3654139 	 127.5581 	 1.023 	 53.501
0.2155000 	 2.5090087 	 138.2765 	 1.025 	 53.500
0.2274750 	 2.6564552 	 149.9139 	 1.027 	 53.455
0.2389901 	 2.8087288 	 159.9314 	 1.029 	 53.463
0.2500774 	 2.9663822 	 171.1130 	 1.031 	 53.446
0.2607569 	 3.1266298 	 180.7515 	 1.032 	 53.450
0.2710478 	 3.2916671 	 191.2175 	 1.035 	 53.418
0.2809855 	 3.4602281 	 200.4658 	 1.037 	 53.417
0.2905748 	 3.6340501 	 212.3370 	 1.039 	 53.399
0.2998468 	 3.8112226 	 222.6082 	 1.041 	 53.388
0.3088108 	 3.9939933 	 232.4404 	 1.042 	 53.382
0.3174889 	 4.1798285 	 245.3559 	 1.044 	 53.360
0.3258857 	 4.3685138 	 253.5065 	 1.047 	 53.327
0.3340269 	 4.5629479 	 264.6026 	 1.049 	 53.325
0.3419227 	 4.7609215 	 274.1601 	 1.051 	 53.321
0.3495835 	 4.9633919 	 286.0056 	 1.053 	 53.296
0.3570115 	 5.1717416 	 298.6177 	 1.055 	 53.302
0.3642191 	 5.3794313 	 311.4114 	 1.056 	 53.286
0.3712238 	 5.5937009 	 323.8441 	 1.058 	 53.239
0.3780388 	 5.8135395 	 332.6070 	 1.060 	 53.270
0.3846624 	 6.0355088 	 342.6398 	 1.061 	 53.247
0.3911055 	 6.2593551 	 355.3708 	 1.064 	 53.224
0.3973745 	 6.4915049 	 365.5442 	 1.065 	 53.212
0.4034840 	 6.7245068 	 373.7127 	 1.067 	 53.208
0.4094326 	 6.9626886 	 385.7861 	 1.068 	 53.174
0.4152274 	 7.2036974 	 395.9821 	 1.069 	 53.168
0.4208758 	 7.4484023 	 409.6459 	 1.072 	 53.164
0.4263824 	 7.6990478 	 417.2608 	 1.073 	 53.153
0.4317578 	 7.9480323 	 422.8538 	 1.075 	 53.106
0.4370015 	 8.2090562 	 433.1314 	 1.076 	 53.107
0.4421289 	 8.4703409 	 445.6071 	 1.077 	 53.104
0.4471312 	 8.7360053 	 455.8897 	 1.079 	 53.090
0.4520166 	 8.9984782 	 468.5087 	 1.079 	 53.058
0.4567922 	 9.2725751 	 481.5095 	 1.081 	 53.062
0.4614573 	 9.5494863 	 491.8127 	 1.083 	 53.059
0.4660200 	 9.8301550 	 500.8801 	 1.083 	 53.048
0.4704833 	 10.1115988 	 514.7039 	 1.084 	 53.010
0.4748475 	 10.4001385 	 524.5598 	 1.085 	 53.001
0.4791210 	 10.6891599 	 535.4419 	 1.086 	 53.011
0.4833036 	 10.9862383 	 547.3311 	 1.087 	 53.001
0.4873984 	 11.2810920 	 560.9010 	 1.087 	 52.994
0.4914097 	 11.5828520 	 572.0435 	 1.088 	 52.983
0.4953378 	 11.8917392 	 587.3945 	 1.089 	 52.975
0.4991878 	 12.2013697 	 598.9156 	 1.089 	 52.952
0.5029563 	 12.5125455 	 622.5550 	 1.089 	 52.944
0.5066521 	 12.8330179 	 636.2086 	 1.091 	 52.935
0.5102790 	 13.1509398 	 647.7843 	 1.092 	 52.929
0.5138328 	 13.4756423 	 662.5551 	 1.092 	 52.909
0.5173181 	 13.8086551 	 675.1342 	 1.092 	 52.908
0.5207408 	 14.1397351 	 689.9605 	 1.092 	 52.879
0.5240936 	 14.4829158 	 697.7883 	 1.093 	 52.889
0.5273877 	 14.8198084 	 707.9297 	 1.093 	 52.875
0.5306188 	 15.1682198 	 719.0301 	 1.093 	 52.871
0.5337925 	 15.5162554 	 738.3692 	 1.092 	 52.873
0.5369069 	 15.8710682 	 749.5076 	 1.092 	 52.861
0.5399669 	 16.2185598 	 769.6433 	 1.092 	 52.850
0.5429729 	 16.5740029 	 793.5532 	 1.091 	 52.840
0.5459254 	 16.9419734 	 818.4299 	 1.092 	 52.845
0.5488267 	 17.3074240 	 858.3697 	 1.092 	 52.835
0.5516799 	 17.6774019 	 906.4350 	 1.091 	 52.803
0.5544815 	 18.0462044 	 974.9101 	 1.090 	 52.811
0.5572378 	 18.4255958 	 1081.9015 	 1.089 	 52.794
0.5599474 	 18.8064596 	 1267.5517 	 1.089 	 52.814
0.5626140 	 19.1915698 	 1555.4699 	 1.087 	 52.813
0.5652350 	 19.5793115 	 2019.8484 	 1.086 	 52.789
0.5678149 	 19.9762206 	 2746.7108 	 1.083 	 52.800
0.5703535 	 20.3808153 	 3945.1615 	 1.081 	 52.817
0.5728501 	 20.8030005 	 5746.5368 	 1.079 	 52.804
0.5753010 	 21.2386856 	 8205.2245 	 1.076 	 52.786
0.5777084 	 21.7205441 	 11398.0292 	 1.076 	 52.798
0.5800691 	 22.2154954 	 15275.4271 	 1.076 	 52.796
0.5823838 	 22.7425695 	 19614.9111 	 1.076 	 52.781
0.5846490 	 23.2974817 	 24598.2512 	 1.076 	 52.771
0.5868650 	 23.8959855 	 29652.8706 	 1.078 	 52.765
0.5890314 	 24.5133630 	 34569.2400 	 1.078 	 52.751
0.5911467 	 25.1861143 	 39578.8186 	 1.080 	 52.774
0.5932112 	 25.8596342 	 43929.2271 	 1.081 	 52.735
0.5952254 	 26.5889899 	 47704.5761 	 1.084 	 52.722
0.5971903 	 27.3349647 	 51152.2406 	 1.086 	 52.710
0.5991070 	 28.0902358 	 54670.8847 	 1.088 	 52.701
0.6009735 	 28.8828380 	 57242.2014 	 1.090 	 52.692
0.6027929 	 29.6771477 	 59464.4004 	 1.091 	 52.682
0.6045674 	 30.5124896 	 61641.3702 	 1.093 	 52.711
0.6062963 	 31.3296307 	 63806.5527 	 1.095 	 52.703
0.6079848 	 32.1707866 	 65881.3848 	 1.097 	 52.719
0.6096323 	 33.0078768 	 69107.3152 	 1.099 	 52.737
0.6112424 	 33.8302776 	 74862.7356 	 1.101 	 52.782
0.6128175 	 34.6209779 	 85174.3380 	 1.101 	 52.853
0.6143606 	 35.3369146 	 107112.8535 	 1.100 	 52.935
0.6158765 	 35.9739547 	 154038.6542 	 1.098 	 53.032
0.6173702 	 36.5585343 	 243854.1925 	 1.095 	 53.193
0.6188457 	 37.0643183 	 385816.9647 	 1.089 	 53.352
0.6203024 	 37.6253527 	 554512.0582 	 1.084 	 53.498
0.6217393 	 38.3088439 	 713090.1500 	 1.081 	 53.605
0.6231507 	 39.1546615 	 832728.3368 	 1.077 	 53.673
0.6245307 	 40.1458396 	 913765.1375 	 1.073 	 53.725
0.6258778 	 41.2579928 	 957351.5938 	 1.071 	 53.760
0.6271882 	 42.4828128 	 979447.3431 	 1.071 	 53.772
0.6284625 	 43.7845173 	 991231.1029 	 1.070 	 53.814
0.6297002 	 45.1453476 	 996412.2866 	 1.070 	 53.784
