N=60 	 R=1000000 	 s=1 	 Save [density, Z, rho_t, like/unlike, events per sweep]
0.0002256 	 1.0008510 	 1.1027 	 0.987 	 7.112
0.0220530 	 1.1831674 	 12.0639 	 0.960 	 35.130
0.0428596 	 1.2259222 	 22.6202 	 0.997 	 47.967
0.0625796 	 1.3034956 	 33.1183 	 1.006 	 51.560
0.0812869 	 1.3960341 	 43.8871 	 1.008 	 52.647
0.0990854 	 1.4967372 	 54.1119 	 1.010 	 53.154
0.1160289 	 1.6040160 	 64.4869 	 1.011 	 53.358
0.1321906 	 1.7181634 	 75.0733 	 1.013 	 53.449
0.1476392 	 1.8362447 	 84.9143 	 1.014 	 53.579
0.1624030 	 1.9617810 	 95.3679 	 1.017 	 53.574
0.1765314 	 2.0917945 	 106.5346 	 1.019 	 53.548
0.1900560 	 2.2265542 	 116.8416 	 1.021 	 53.532
0.2030253 	 2.3652692 	 127.7510 	 1.023 	 53.504
0.2154895 	 2.5091086 	 137.6123 	 1.025 	 53.498
0.2274587 	 2.6566299 	 148.6887 	 1.027 	 53.477
0.2389699 	 2.8091509 	 159.6444 	 1.029 	 53.465
0.2500502 	 2.9647385 	 170.0102 	 1.031 	 53.439
0.2607268 	 3.1258342 	 180.2933 	 1.033 	 53.425
0.2710203 	 3.2907381 	 190.6017 	 1.035 	 53.416
0.2809478 	 3.4597777 	 201.1347 	 1.036 	 53.386
0.2905492 	 3.6331947 	 210.3828 	 1.039 	 53.371
0.2998231 	 3.8115847 	 220.2699 	 1.040 	 53.384
0.3087906 	 3.9927450 	 230.4853 	 1.042 	 53.364
0.3174706 	 4.1779704 	 238.7314 	 1.044 	 53.351
0.3258711 	 4.3699006 	 249.3464 	 1.046 	 53.345
0.3340135 	 4.5631794 	 259.1474 	 1.048 	 53.340
0.3419057 	 4.7611227 	 269.7704 	 1.050 	 53.309
0.3495661 	 4.9635081 	 279.8830 	 1.052 	 53.311
0.3569978 	 5.1695654 	 289.4323 	 1.054 	 53.291
0.3642154 	 5.3778889 	 301.5395 	 1.055 	 53.253
0.3712266 	 5.5944348 	 311.7375 	 1.058 	 53.281
0.3780359 	 5.8108172 	 323.8399 	 1.060 	 53.243
0.3846584 	 6.0337152 	 332.3225 	 1.062 	 53.240
0.3911069 	 6.2581700 	 341.7130 	 1.064 	 53.204
0.3973809 	 6.4891109 	 352.4673 	 1.064 	 53.205
0.4034878 	 6.7250257 	 366.2937 	 1.066 	 53.202
0.4094414 	 6.9609594 	 376.4540 	 1.068 	 53.177
0.4152364 	 7.2043134 	 384.7118 	 1.070 	 53.177
0.4208813 	 7.4488082 	 395.1969 	 1.072 	 53.149
0.4263930 	 7.6966369 	 403.9454 	 1.073 	 53.126
0.4317704 	 7.9507909 	 415.3343 	 1.074 	 53.119
0.4370173 	 8.2079523 	 423.1742 	 1.076 	 53.102
0.4421411 	 8.4682759 	 434.5916 	 1.077 	 53.097
0.4471399 	 8.7342580 	 447.0595 	 1.079 	 53.091
0.4520260 	 9.0019016 	 454.8430 	 1.079 	 53.070
0.4568001 	 9.2727804 	 466.8872 	 1.080 	 53.077
0.4614687 	 9.5492360 	 477.9532 	 1.082 	 53.063
0.4660309 	 9.8297611 	 489.4223 	 1.082 	 53.048
0.4704923 	 10.1155024 	 498.7076 	 1.083 	 53.043
0.4748597 	 10.3979522 	 507.1176 	 1.083 	 53.008
0.4791329 	 10.6913702 	 515.1002 	 1.085 	 53.010
0.4833193 	 10.9839364 	 525.9797 	 1.085 	 52.994
0.4874139 	 11.2867732 	 538.1428 	 1.087 	 52.967
0.4914219 	 11.5851788 	 548.8356 	 1.088 	 52.972
0.4953497 	 11.8939147 	 559.1904 	 1.088 	 52.961
0.4991960 	 12.2013667 	 570.3907 	 1.089 	 52.957
0.5029693 	 12.5189680 	 582.2817 	 1.089 	 52.954
0.5066657 	 12.8332661 	 591.5842 	 1.089 	 52.937
0.5102905 	 13.1578235 	 599.4079 	 1.089 	 52.928
0.5138440 	 13.4789579 	 609.1108 	 1.090 	 52.899
0.5173305 	 13.8077500 	 617.2140 	 1.089 	 52.907
0.5207523 	 14.1453395 	 627.8981 	 1.090 	 52.909
0.5241079 	 14.4834896 	 641.0621 	 1.090 	 52.902
0.5274016 	 14.8219729 	 659.5159 	 1.090 	 52.875
0.5306332 	 15.1666079 	 679.2649 	 1.090 	 52.862
0.5338057 	 15.5108897 	 699.8310 	 1.089 	 52.851
0.5369228 	 15.8682185 	 722.7815 	 1.090 	 52.861
0.5399839 	 16.2289341 	 746.7102 	 1.089 	 52.862
0.5429879 	 16.5809928 	 778.9913 	 1.088 	 52.830
0.5459398 	 16.9440691 	 808.6856 	 1.089 	 52.807
0.5488397 	 17.3190049 	 863.7021 	 1.089 	 52.831
0.5516916 	 17.6876025 	 933.9411 	 1.088 	 52.815
0.5544922 	 18.0552862 	 1050.4468 	 1.088 	 52.806
0.5572469 	 18.4505396 	 1188.9843 	 1.087 	 52.813
0.5599522 	 18.8257266 	 1418.5588 	 1.085 	 52.789
0.5626145 	 19.2328386 	 1718.1701 	 1.085 	 52.810
0.5652318 	 19.6285221 	 2177.7159 	 1.084 	 52.804
0.5678055 	 20.0253223 	 2765.7029 	 1.083 	 52.774
0.5703364 	 20.4308307 	 3530.6402 	 1.082 	 52.745
0.5728237 	 20.8689999 	 4511.2556 	 1.081 	 52.766
0.5752691 	 21.3175854 	 5721.1839 	 1.078 	 52.755
0.5776710 	 21.7798075 	 7384.1522 	 1.075 	 52.759
0.5800267 	 22.2579842 	 9406.5384 	 1.070 	 52.754
0.5823365 	 22.7484115 	 11791.1886 	 1.066 	 52.742
0.5846041 	 23.2873620 	 14674.8608 	 1.061 	 52.735
0.5868247 	 23.8302282 	 18174.3476 	 1.055 	 52.720
0.5889983 	 24.4147990 	 22154.7822 	 1.049 	 52.738
0.5911279 	 25.0058747 	 26806.2771 	 1.042 	 52.736
0.5932077 	 25.6408043 	 31773.6303 	 1.035 	 52.747
0.5952434 	 26.3005414 	 37012.7626 	 1.028 	 52.751
0.5972310 	 26.9761169 	 42799.9247 	 1.022 	 52.756
0.5991748 	 27.6859381 	 48845.8773 	 1.016 	 52.766
0.6010713 	 28.4348969 	 56643.8488 	 1.012 	 52.801
0.6029225 	 29.1857360 	 64929.2279 	 1.008 	 52.802
0.6047287 	 29.9742878 	 74713.2970 	 1.006 	 52.836
0.6064913 	 30.7949021 	 86197.1290 	 1.005 	 52.826
0.6082094 	 31.6572098 	 98746.9808 	 1.004 	 52.844
0.6098847 	 32.5437620 	 111184.9252 	 1.005 	 52.836
0.6115156 	 33.4642230 	 125136.9003 	 1.007 	 52.843
0.6131048 	 34.4310111 	 138556.3361 	 1.009 	 52.867
0.6146520 	 35.4341651 	 151607.9415 	 1.013 	 52.837
0.6161580 	 36.4851989 	 164361.3287 	 1.016 	 52.837
0.6176218 	 37.5669174 	 177193.0648 	 1.020 	 52.832
0.6190454 	 38.7090750 	 188186.9794 	 1.025 	 52.861
0.6204295 	 39.8725624 	 197248.0727 	 1.029 	 52.834
0.6217754 	 41.0495988 	 204222.7342 	 1.035 	 52.809
0.6230837 	 42.2697057 	 214560.2528 	 1.040 	 52.778
0.6243552 	 43.5549871 	 226730.3429 	 1.045 	 52.796
0.6255924 	 44.8383007 	 238523.9017 	 1.052 	 52.762
0.6267952 	 46.1927930 	 254034.2899 	 1.060 	 52.768
0.6279649 	 47.5293189 	 274765.2614 	 1.066 	 52.715
0.6291020 	 48.9300250 	 298577.3726 	 1.075 	 52.706
