N=60 	 R=1000000 	 s=1 	 Save [density, Z, rho_t, like/unlike, events per sweep]
0.0002247 	 1.0008514 	 1.1026 	 1.000 	 7.112
0.0220648 	 1.1832528 	 12.0032 	 0.960 	 35.136
0.0428585 	 1.2260338 	 22.6086 	 0.999 	 47.979
0.0625817 	 1.3035241 	 33.0627 	 1.006 	 51.563
0.0812983 	 1.3961249 	 43.6698 	 1.008 	 52.645
0.0991017 	 1.4967852 	 54.2669 	 1.009 	 53.131
0.1160520 	 1.6044965 	 64.9941 	 1.011 	 53.366
0.1322090 	 1.7182389 	 75.5142 	 1.013 	 53.447
0.1476480 	 1.8362205 	 85.9346 	 1.014 	 53.582
0.1624012 	 1.9616271 	 96.3327 	 1.017 	 53.566
0.1765242 	 2.0919752 	 106.0973 	 1.019 	 53.540
0.1900489 	 2.2265524 	 116.7373 	 1.021 	 53.539
0.2030246 	 2.3650788 	 127.2344 	 1.023 	 53.498
0.2154790 	 2.5086512 	 137.8208 	 1.025 	 53.482
0.2274407 	 2.6568154 	 147.9770 	 1.027 	 53.466
0.2389602 	 2.8097336 	 158.1414 	 1.029 	 53.493
0.2500471 	 2.9649034 	 169.5029 	 1.031 	 53.436
0.2607323 	 3.1268040 	 180.0908 	 1.033 	 53.424
0.2710319 	 3.2915241 	 191.3933 	 1.035 	 53.427
0.2809662 	 3.4603887 	 201.5528 	 1.036 	 53.400
0.2905706 	 3.6346754 	 212.1292 	 1.038 	 53.402
0.2998444 	 3.8125498 	 222.1373 	 1.040 	 53.398
0.3088049 	 3.9936026 	 234.7656 	 1.043 	 53.365
0.3174775 	 4.1785810 	 244.4459 	 1.045 	 53.353
0.3258806 	 4.3690409 	 254.0616 	 1.046 	 53.348
0.3340272 	 4.5623351 	 263.3240 	 1.048 	 53.338
0.3419199 	 4.7602896 	 271.9981 	 1.050 	 53.299
0.3495734 	 4.9632313 	 279.8960 	 1.053 	 53.307
0.3570073 	 5.1707408 	 290.5386 	 1.054 	 53.302
0.3642150 	 5.3811840 	 299.9480 	 1.056 	 53.303
0.3712190 	 5.5940443 	 310.3787 	 1.058 	 53.267
0.3780286 	 5.8121281 	 321.2232 	 1.060 	 53.236
0.3846541 	 6.0341107 	 331.4043 	 1.061 	 53.252
0.3910942 	 6.2574758 	 339.5621 	 1.063 	 53.191
0.3973640 	 6.4877662 	 353.2978 	 1.065 	 53.207
0.4034696 	 6.7232730 	 364.5078 	 1.067 	 53.189
0.4094228 	 6.9600232 	 374.5335 	 1.068 	 53.166
0.4152235 	 7.2010387 	 384.5531 	 1.070 	 53.146
0.4208701 	 7.4490944 	 390.8026 	 1.071 	 53.156
0.4263823 	 7.6974267 	 402.0122 	 1.073 	 53.132
0.4317543 	 7.9504384 	 415.6193 	 1.075 	 53.130
0.4370045 	 8.2086680 	 425.0596 	 1.075 	 53.106
0.4421229 	 8.4694160 	 434.6977 	 1.077 	 53.098
0.4471225 	 8.7358104 	 443.5165 	 1.078 	 53.098
0.4520101 	 9.0030270 	 456.9193 	 1.079 	 53.074
0.4567856 	 9.2740495 	 468.2323 	 1.080 	 53.067
0.4614503 	 9.5472342 	 476.7920 	 1.082 	 53.045
0.4660155 	 9.8309526 	 485.9195 	 1.083 	 53.059
0.4704775 	 10.1147539 	 495.7913 	 1.083 	 53.035
0.4748434 	 10.4018452 	 508.5331 	 1.085 	 53.028
0.4791160 	 10.6881692 	 516.5920 	 1.085 	 53.016
0.4832977 	 10.9852520 	 526.7587 	 1.085 	 53.011
0.4873943 	 11.2826602 	 537.5719 	 1.087 	 52.986
0.4914031 	 11.5837070 	 546.9802 	 1.087 	 52.982
0.4953304 	 11.8921445 	 556.9956 	 1.088 	 52.951
0.4991793 	 12.1981471 	 564.4962 	 1.089 	 52.943
0.5029484 	 12.5158635 	 575.0027 	 1.090 	 52.952
0.5066479 	 12.8321493 	 586.4204 	 1.090 	 52.932
0.5102748 	 13.1522821 	 598.5150 	 1.090 	 52.917
0.5138268 	 13.4796811 	 606.8372 	 1.091 	 52.921
0.5173146 	 13.8053801 	 618.0319 	 1.090 	 52.910
0.5207338 	 14.1408064 	 630.8165 	 1.092 	 52.895
0.5240921 	 14.4818359 	 642.4695 	 1.091 	 52.886
0.5273844 	 14.8193436 	 657.1814 	 1.091 	 52.880
0.5306168 	 15.1596161 	 671.1163 	 1.091 	 52.840
0.5337870 	 15.5084763 	 687.9426 	 1.090 	 52.886
0.5369020 	 15.8669127 	 709.6341 	 1.090 	 52.879
0.5399647 	 16.2266613 	 726.7520 	 1.090 	 52.864
0.5429721 	 16.5881559 	 745.2129 	 1.090 	 52.843
0.5459234 	 16.9582067 	 774.4331 	 1.089 	 52.836
0.5488237 	 17.3303920 	 812.7927 	 1.089 	 52.834
0.5516680 	 17.7075327 	 857.1406 	 1.089 	 52.815
0.5544659 	 18.0837699 	 910.9036 	 1.089 	 52.808
0.5572180 	 18.4680750 	 984.7006 	 1.088 	 52.789
0.5599209 	 18.8593522 	 1092.7236 	 1.087 	 52.781
0.5625780 	 19.2566855 	 1227.9341 	 1.087 	 52.766
0.5651892 	 19.6526112 	 1449.7270 	 1.086 	 52.787
0.5677585 	 20.0628038 	 1783.2538 	 1.086 	 52.770
0.5702848 	 20.4716651 	 2263.8647 	 1.086 	 52.768
0.5727675 	 20.8970689 	 2965.8456 	 1.088 	 52.755
0.5752048 	 21.3380238 	 3955.8230 	 1.088 	 52.748
0.5775994 	 21.8069434 	 5400.7824 	 1.092 	 52.756
0.5799515 	 22.2763650 	 7423.8017 	 1.096 	 52.734
0.5822583 	 22.7764654 	 10028.0910 	 1.101 	 52.733
0.5845226 	 23.3010735 	 13408.9612 	 1.108 	 52.744
0.5867397 	 23.8531112 	 17448.6756 	 1.116 	 52.734
0.5889113 	 24.4292690 	 21992.6540 	 1.123 	 52.741
0.5910372 	 25.0406490 	 26914.7809 	 1.131 	 52.730
0.5931151 	 25.6886895 	 32565.3701 	 1.140 	 52.751
0.5951456 	 26.3613135 	 38455.0895 	 1.149 	 52.756
0.5971286 	 27.0550866 	 44948.3934 	 1.159 	 52.749
0.5990632 	 27.7866142 	 52234.8119 	 1.166 	 52.747
0.6009499 	 28.5590533 	 60316.5392 	 1.174 	 52.762
0.6027921 	 29.3491031 	 68617.2728 	 1.180 	 52.744
0.6045856 	 30.1742861 	 77553.1292 	 1.185 	 52.739
0.6063350 	 31.0487339 	 85780.5542 	 1.188 	 52.731
0.6080360 	 31.9653469 	 93776.4539 	 1.193 	 52.714
0.6096914 	 32.9314522 	 100130.0874 	 1.193 	 52.723
0.6113012 	 33.9042375 	 105210.5679 	 1.191 	 52.719
0.6128658 	 34.9559955 	 109999.2061 	 1.189 	 52.731
0.6143859 	 35.9989625 	 112122.1021 	 1.183 	 52.693
0.6158652 	 37.1071408 	 112786.0279 	 1.173 	 52.705
0.6173028 	 38.2138742 	 112760.7082 	 1.158 	 52.698
0.6187020 	 39.3462298 	 113053.0921 	 1.142 	 52.706
0.6200636 	 40.4487158 	 116055.5906 	 1.121 	 52.691
0.6213896 	 41.5653415 	 123273.0299 	 1.095 	 52.733
0.6226828 	 42.6187762 	 138603.3761 	 1.067 	 52.724
0.6239470 	 43.6855705 	 166154.5232 	 1.033 	 52.734
0.6251826 	 44.7075796 	 210033.2424 	 0.998 	 52.761
0.6263923 	 45.7306205 	 269111.7338 	 0.965 	 52.806
0.6275766 	 46.8389978 	 340232.9256 	 0.936 	 52.841
0.6287339 	 47.9721320 	 418601.2648 	 0.911 	 52.869
0.6298653 	 49.2062054 	 500045.7284 	 0.890 	 52.900
