N=60 	 R=1000000 	 s=1 	 Save [density, Z, rho_t, like/unlike, events per sweep]
0.0002266 	 1.0008551 	 1.1026 	 0.995 	 7.113
0.0220844 	 1.1833632 	 12.0092 	 0.961 	 35.171
0.0428827 	 1.2260715 	 22.5095 	 0.998 	 47.967
0.0626061 	 1.3035704 	 32.7973 	 1.007 	 51.555
0.0813129 	 1.3961738 	 43.2886 	 1.007 	 52.657
0.0990978 	 1.4968078 	 53.7137 	 1.010 	 53.143
0.1160468 	 1.6044311 	 64.0199 	 1.012 	 53.359
0.1322230 	 1.7182917 	 73.9784 	 1.014 	 53.453
0.1476687 	 1.8363756 	 84.3059 	 1.013 	 53.576
0.1624260 	 1.9621198 	 94.4705 	 1.017 	 53.568
0.1765609 	 2.0920569 	 104.9559 	 1.019 	 53.548
0.1900904 	 2.2264980 	 115.1595 	 1.021 	 53.530
0.2030586 	 2.3657232 	 125.5460 	 1.023 	 53.504
0.2155194 	 2.5093473 	 136.3316 	 1.025 	 53.493
0.2274739 	 2.6568635 	 147.6387 	 1.027 	 53.474
0.2389907 	 2.8089404 	 157.2099 	 1.029 	 53.462
0.2500745 	 2.9653209 	 168.1788 	 1.030 	 53.448
0.2607581 	 3.1264315 	 178.5062 	 1.033 	 53.427
0.2710514 	 3.2913140 	 187.6228 	 1.034 	 53.409
0.2809809 	 3.4605298 	 198.8638 	 1.037 	 53.409
0.2905724 	 3.6349512 	 208.5289 	 1.039 	 53.400
0.2998405 	 3.8130336 	 217.9087 	 1.040 	 53.398
0.3088104 	 3.9931734 	 227.3887 	 1.042 	 53.364
0.3174840 	 4.1792474 	 238.9223 	 1.044 	 53.347
0.3258823 	 4.3688794 	 248.4475 	 1.046 	 53.336
0.3340227 	 4.5624134 	 259.5304 	 1.049 	 53.324
0.3419098 	 4.7619199 	 267.9855 	 1.051 	 53.324
0.3495660 	 4.9628403 	 277.6188 	 1.053 	 53.299
0.3569988 	 5.1691214 	 288.0849 	 1.054 	 53.292
0.3642182 	 5.3789135 	 299.6930 	 1.056 	 53.254
0.3712269 	 5.5924987 	 310.7617 	 1.058 	 53.246
0.3780421 	 5.8119717 	 319.7902 	 1.059 	 53.261
0.3846688 	 6.0338147 	 328.2992 	 1.061 	 53.232
0.3911106 	 6.2591101 	 339.1923 	 1.063 	 53.216
0.3973836 	 6.4885824 	 347.0800 	 1.065 	 53.182
0.4034944 	 6.7264423 	 358.2215 	 1.067 	 53.197
0.4094394 	 6.9624743 	 366.4380 	 1.068 	 53.182
0.4152353 	 7.2036332 	 377.1163 	 1.070 	 53.177
0.4208861 	 7.4486524 	 387.1102 	 1.072 	 53.157
0.4263957 	 7.6981518 	 396.3124 	 1.073 	 53.135
0.4317700 	 7.9506200 	 407.1253 	 1.074 	 53.121
0.4370164 	 8.2101289 	 416.2550 	 1.076 	 53.114
0.4421355 	 8.4713948 	 422.8241 	 1.076 	 53.116
0.4471374 	 8.7327538 	 433.6700 	 1.079 	 53.093
0.4520204 	 9.0031059 	 442.6434 	 1.079 	 53.087
0.4567938 	 9.2715127 	 455.2893 	 1.081 	 53.048
0.4614597 	 9.5484204 	 465.4050 	 1.082 	 53.035
0.4660212 	 9.8311047 	 478.9301 	 1.083 	 53.048
0.4704815 	 10.1134378 	 489.0090 	 1.084 	 53.038
0.4748482 	 10.4025504 	 496.1674 	 1.084 	 53.028
0.4791230 	 10.6902545 	 505.3629 	 1.085 	 53.009
0.4833069 	 10.9813815 	 518.0259 	 1.087 	 52.991
0.4874010 	 11.2824289 	 523.8329 	 1.087 	 52.982
0.4914107 	 11.5805021 	 532.9206 	 1.088 	 52.962
0.4953381 	 11.8934723 	 543.0348 	 1.089 	 52.981
0.4991882 	 12.2048982 	 555.2025 	 1.089 	 52.949
0.5029617 	 12.5131849 	 567.8124 	 1.090 	 52.930
0.5066587 	 12.8329275 	 577.4922 	 1.090 	 52.915
0.5102809 	 13.1498886 	 588.1247 	 1.090 	 52.908
0.5138374 	 13.4755893 	 597.0840 	 1.089 	 52.915
0.5173230 	 13.8094440 	 609.1687 	 1.090 	 52.907
0.5207460 	 14.1371692 	 622.3575 	 1.090 	 52.904
0.5241022 	 14.4753891 	 632.6339 	 1.090 	 52.902
0.5273954 	 14.8160404 	 646.1338 	 1.089 	 52.864
0.5306281 	 15.1587244 	 659.7146 	 1.090 	 52.873
0.5338007 	 15.5135684 	 676.6187 	 1.090 	 52.893
0.5369176 	 15.8618379 	 694.9564 	 1.088 	 52.853
0.5399767 	 16.2206492 	 718.6309 	 1.088 	 52.837
0.5429829 	 16.5870972 	 753.5490 	 1.088 	 52.854
0.5459370 	 16.9480267 	 789.4107 	 1.086 	 52.824
0.5488399 	 17.3084756 	 829.0788 	 1.086 	 52.810
0.5516940 	 17.6741771 	 892.9766 	 1.085 	 52.821
0.5545000 	 18.0454681 	 971.8546 	 1.082 	 52.802
0.5572582 	 18.4246419 	 1094.6925 	 1.080 	 52.824
0.5599709 	 18.8006911 	 1274.3048 	 1.079 	 52.790
0.5626370 	 19.1921486 	 1537.3968 	 1.078 	 52.787
0.5652590 	 19.5940125 	 1901.7250 	 1.076 	 52.786
0.5678343 	 20.0050981 	 2454.6010 	 1.074 	 52.790
0.5703676 	 20.4099452 	 3231.1021 	 1.071 	 52.773
0.5728573 	 20.8550219 	 4301.5371 	 1.069 	 52.804
0.5753029 	 21.2956021 	 5678.2658 	 1.068 	 52.811
0.5777042 	 21.7620827 	 7574.4356 	 1.064 	 52.799
0.5800598 	 22.2581183 	 9930.1323 	 1.062 	 52.794
0.5823700 	 22.7615875 	 13106.6609 	 1.058 	 52.778
0.5846313 	 23.2945815 	 17253.5427 	 1.054 	 52.781
0.5868474 	 23.8379751 	 22595.4635 	 1.051 	 52.772
0.5890202 	 24.4240625 	 29686.9479 	 1.048 	 52.771
0.5911457 	 25.0384694 	 37782.8341 	 1.046 	 52.742
0.5932251 	 25.6700430 	 48753.2092 	 1.045 	 52.714
0.5952579 	 26.3394993 	 61710.2655 	 1.044 	 52.698
0.5972427 	 27.0477496 	 76370.8921 	 1.045 	 52.663
0.5991779 	 27.7964492 	 91837.4821 	 1.046 	 52.626
0.6010650 	 28.5774717 	 109707.8072 	 1.049 	 52.580
0.6029051 	 29.3968649 	 127165.1795 	 1.052 	 52.539
0.6046956 	 30.2595044 	 144326.5155 	 1.055 	 52.502
0.6064393 	 31.1510883 	 159620.5153 	 1.059 	 52.457
0.6081351 	 32.1038769 	 171153.5056 	 1.064 	 52.421
0.6097833 	 33.0840695 	 183082.9877 	 1.067 	 52.381
0.6113849 	 34.1094727 	 189756.9452 	 1.069 	 52.368
0.6129405 	 35.1803085 	 194438.7592 	 1.072 	 52.333
0.6144510 	 36.2760531 	 196375.8075 	 1.071 	 52.310
0.6159189 	 37.4001333 	 194036.3265 	 1.072 	 52.321
0.6173448 	 38.5505778 	 193009.1595 	 1.070 	 52.331
0.6187295 	 39.7349823 	 190491.8070 	 1.064 	 52.334
0.6200761 	 40.9348029 	 187221.7090 	 1.056 	 52.390
0.6213864 	 42.1557183 	 186240.9347 	 1.046 	 52.434
0.6226608 	 43.3803527 	 188394.1863 	 1.033 	 52.499
0.6239001 	 44.6038136 	 194329.7677 	 1.015 	 52.584
0.6251087 	 45.7974019 	 204123.8075 	 0.993 	 52.690
0.6262874 	 46.9911710 	 226442.2725 	 0.968 	 52.828
0.6274372 	 48.1827160 	 262615.0910 	 0.940 	 52.954
0.6285604 	 49.3871090 	 318578.2121 	 0.913 	 53.096
0.6296581 	 50.6226336 	 392340.7634 	 0.885 	 53.260
