N=60 	 R=1000000 	 s=1 	 Save [density, Z, rho_t, like/unlike, events per sweep]
0.0002260 	 1.0008571 	 1.1025 	 1.002 	 7.113
0.0220685 	 1.1832150 	 11.9862 	 0.961 	 35.168
0.0428500 	 1.2259299 	 22.6072 	 0.998 	 47.965
0.0625601 	 1.3033709 	 33.1440 	 1.006 	 51.548
0.0812777 	 1.3959471 	 43.3147 	 1.008 	 52.640
0.0990595 	 1.4965930 	 53.6066 	 1.009 	 53.140
0.1160115 	 1.6041790 	 63.6406 	 1.011 	 53.375
0.1321887 	 1.7179704 	 73.8710 	 1.014 	 53.461
0.1476288 	 1.8363051 	 84.4957 	 1.014 	 53.596
0.1623873 	 1.9615330 	 94.7877 	 1.017 	 53.567
0.1765185 	 2.0919804 	 106.0787 	 1.019 	 53.563
0.1900490 	 2.2262283 	 116.5781 	 1.021 	 53.525
0.2030171 	 2.3654053 	 127.5818 	 1.023 	 53.510
0.2154712 	 2.5089606 	 136.6790 	 1.026 	 53.484
0.2274428 	 2.6559857 	 147.1576 	 1.027 	 53.472
0.2389545 	 2.8088398 	 157.9642 	 1.029 	 53.462
0.2500432 	 2.9649285 	 167.9368 	 1.031 	 53.454
0.2607189 	 3.1252395 	 177.3129 	 1.033 	 53.415
0.2710110 	 3.2908295 	 186.4516 	 1.035 	 53.430
0.2809481 	 3.4596642 	 195.2464 	 1.036 	 53.402
0.2905432 	 3.6331076 	 205.9776 	 1.039 	 53.366
0.2998115 	 3.8111530 	 216.4795 	 1.040 	 53.379
0.3087794 	 3.9927925 	 227.6323 	 1.043 	 53.363
0.3174628 	 4.1789067 	 239.3777 	 1.044 	 53.352
0.3258693 	 4.3708045 	 250.9912 	 1.046 	 53.347
0.3340116 	 4.5638003 	 261.8131 	 1.048 	 53.350
0.3418980 	 4.7611806 	 271.5870 	 1.050 	 53.318
0.3495540 	 4.9613979 	 282.7734 	 1.053 	 53.292
0.3569855 	 5.1691069 	 293.9520 	 1.054 	 53.278
0.3641963 	 5.3767495 	 302.2433 	 1.055 	 53.262
0.3712059 	 5.5938516 	 314.1567 	 1.058 	 53.265
0.3780191 	 5.8116234 	 324.9215 	 1.060 	 53.262
0.3846446 	 6.0332260 	 334.4903 	 1.062 	 53.217
0.3910904 	 6.2595997 	 345.2635 	 1.064 	 53.223
0.3973612 	 6.4895545 	 355.5626 	 1.065 	 53.220
0.4034661 	 6.7223598 	 367.1786 	 1.067 	 53.194
0.4094138 	 6.9617344 	 377.3915 	 1.068 	 53.187
0.4152142 	 7.2019598 	 389.1756 	 1.070 	 53.152
0.4208672 	 7.4492585 	 401.7897 	 1.072 	 53.163
0.4263810 	 7.6969956 	 415.8098 	 1.073 	 53.144
0.4317573 	 7.9510599 	 427.4962 	 1.075 	 53.134
0.4370012 	 8.2085274 	 434.8351 	 1.075 	 53.127
0.4421218 	 8.4687611 	 443.8223 	 1.076 	 53.106
0.4471233 	 8.7336191 	 452.6061 	 1.078 	 53.104
0.4520107 	 9.0026945 	 461.9221 	 1.079 	 53.067
0.4567811 	 9.2727269 	 473.5270 	 1.080 	 53.057
0.4614434 	 9.5477522 	 483.0138 	 1.082 	 53.055
0.4660045 	 9.8293088 	 490.3946 	 1.083 	 53.050
0.4704668 	 10.1082525 	 502.5873 	 1.084 	 53.038
0.4748315 	 10.3973214 	 516.7234 	 1.085 	 53.022
0.4791028 	 10.6870237 	 521.8643 	 1.085 	 52.999
0.4832859 	 10.9874603 	 536.0036 	 1.086 	 53.000
0.4873792 	 11.2812683 	 540.9860 	 1.086 	 52.978
0.4913928 	 11.5802592 	 554.6915 	 1.087 	 52.960
0.4953195 	 11.8855875 	 571.8198 	 1.088 	 52.973
0.4991692 	 12.2000230 	 583.6441 	 1.089 	 52.950
0.5029420 	 12.5139627 	 594.5689 	 1.089 	 52.976
0.5066396 	 12.8288083 	 604.5390 	 1.088 	 52.928
0.5102640 	 13.1582576 	 618.1665 	 1.090 	 52.941
0.5138167 	 13.4769514 	 628.9282 	 1.090 	 52.919
0.5173019 	 13.8084301 	 644.8013 	 1.090 	 52.916
0.5207212 	 14.1380412 	 658.3458 	 1.090 	 52.883
0.5240766 	 14.4768810 	 673.2090 	 1.090 	 52.876
0.5273698 	 14.8232935 	 685.5455 	 1.091 	 52.884
0.5306008 	 15.1698863 	 692.0799 	 1.091 	 52.872
0.5337742 	 15.5051652 	 711.6347 	 1.090 	 52.853
0.5368899 	 15.8674649 	 724.0020 	 1.090 	 52.867
0.5399508 	 16.2191580 	 741.1252 	 1.088 	 52.847
0.5429577 	 16.5837201 	 762.9237 	 1.089 	 52.862
0.5459123 	 16.9356333 	 792.6908 	 1.089 	 52.826
0.5488129 	 17.3080375 	 833.2971 	 1.088 	 52.823
0.5516658 	 17.6790507 	 889.5224 	 1.088 	 52.815
0.5544680 	 18.0592398 	 973.6562 	 1.089 	 52.813
0.5572222 	 18.4385944 	 1087.0424 	 1.089 	 52.806
0.5599322 	 18.8211643 	 1254.0611 	 1.088 	 52.793
0.5625947 	 19.2171766 	 1494.7705 	 1.086 	 52.791
0.5652143 	 19.6117615 	 1864.2426 	 1.085 	 52.797
0.5677890 	 20.0102821 	 2465.3377 	 1.085 	 52.776
0.5703215 	 20.4287738 	 3446.3321 	 1.084 	 52.797
0.5728102 	 20.8432974 	 5125.9569 	 1.082 	 52.773
0.5752581 	 21.2577713 	 8149.3245 	 1.080 	 52.795
0.5776649 	 21.6840651 	 13350.3522 	 1.077 	 52.780
0.5800298 	 22.1249109 	 22778.5238 	 1.072 	 52.805
0.5823584 	 22.5692719 	 39144.0031 	 1.065 	 52.836
0.5846481 	 23.0328488 	 63459.2462 	 1.058 	 52.855
0.5868994 	 23.5295975 	 97528.9090 	 1.052 	 52.890
0.5891055 	 24.0586800 	 141289.7287 	 1.044 	 52.927
0.5912688 	 24.6319137 	 192438.7550 	 1.039 	 52.972
0.5933858 	 25.2445640 	 248407.1200 	 1.034 	 53.005
0.5954547 	 25.9007575 	 307626.0155 	 1.029 	 53.001
0.5974741 	 26.6126347 	 370979.6299 	 1.025 	 53.045
0.5994412 	 27.3634266 	 428051.0184 	 1.023 	 53.058
0.6013589 	 28.1447177 	 487920.0726 	 1.022 	 53.034
0.6032285 	 28.9808483 	 544387.4700 	 1.022 	 53.067
0.6050474 	 29.8535662 	 597924.0612 	 1.021 	 53.088
0.6068152 	 30.7469132 	 651543.9882 	 1.023 	 53.066
0.6085338 	 31.7023804 	 697552.9541 	 1.023 	 53.069
0.6102032 	 32.6654310 	 740745.3363 	 1.025 	 53.043
0.6118268 	 33.7025844 	 778340.9919 	 1.026 	 53.072
0.6134042 	 34.7444387 	 811329.8852 	 1.029 	 53.045
0.6149369 	 35.8236374 	 840084.2278 	 1.031 	 53.014
0.6164244 	 36.9722916 	 866847.4503 	 1.034 	 53.027
0.6178680 	 38.1350503 	 890485.3959 	 1.036 	 53.006
0.6192688 	 39.3836880 	 908335.2755 	 1.039 	 53.028
0.6206279 	 40.6379061 	 922011.7761 	 1.042 	 52.975
0.6219452 	 41.9598754 	 934682.4928 	 1.045 	 52.960
0.6232239 	 43.3530231 	 945864.7710 	 1.048 	 52.960
0.6244631 	 44.7541724 	 953403.6261 	 1.050 	 52.930
0.6256646 	 46.2551629 	 959860.6623 	 1.053 	 52.943
0.6268279 	 47.8187918 	 965880.5707 	 1.056 	 52.946
0.6279550 	 49.4264231 	 968645.4167 	 1.059 	 52.922
0.6290456 	 51.1023976 	 971476.7841 	 1.060 	 52.922
