N=60 	 R=1000000 	 s=1 	 Save [density, Z, rho_t, like/unlike, events per sweep]
0.0002270 	 1.0008620 	 1.1027 	 0.998 	 7.114
0.0220664 	 1.1831522 	 12.0000 	 0.960 	 35.164
0.0428661 	 1.2260485 	 22.5344 	 0.998 	 47.962
0.0626004 	 1.3035791 	 32.9471 	 1.007 	 51.546
0.0813111 	 1.3962054 	 43.4489 	 1.008 	 52.655
0.0991138 	 1.4968438 	 53.6531 	 1.010 	 53.130
0.1160760 	 1.6046438 	 63.7821 	 1.012 	 53.367
0.1322543 	 1.7184309 	 74.2256 	 1.013 	 53.461
0.1476922 	 1.8366399 	 84.8068 	 1.014 	 53.578
0.1624558 	 1.9622940 	 94.7762 	 1.017 	 53.558
0.1765725 	 2.0921972 	 105.1612 	 1.019 	 53.555
0.1901181 	 2.2270479 	 115.8631 	 1.020 	 53.521
0.2030805 	 2.3658227 	 125.6632 	 1.024 	 53.506
0.2155323 	 2.5096240 	 136.3634 	 1.025 	 53.503
0.2274963 	 2.6571288 	 148.2408 	 1.027 	 53.469
0.2390163 	 2.8095376 	 158.6324 	 1.029 	 53.459
0.2500958 	 2.9658355 	 169.3342 	 1.030 	 53.452
0.2607702 	 3.1269808 	 180.6947 	 1.032 	 53.433
0.2710672 	 3.2922229 	 191.2246 	 1.035 	 53.428
0.2810008 	 3.4621520 	 203.0619 	 1.037 	 53.420
0.2905878 	 3.6336864 	 212.7063 	 1.038 	 53.378
0.2998588 	 3.8117011 	 222.8212 	 1.041 	 53.376
0.3088204 	 3.9937834 	 231.9089 	 1.042 	 53.372
0.3174902 	 4.1803950 	 242.3285 	 1.045 	 53.384
0.3258963 	 4.3683647 	 251.6711 	 1.046 	 53.336
0.3340353 	 4.5644933 	 262.9184 	 1.048 	 53.322
0.3419263 	 4.7614627 	 274.3906 	 1.050 	 53.306
0.3495758 	 4.9633976 	 285.0118 	 1.052 	 53.285
0.3570077 	 5.1699365 	 294.8446 	 1.055 	 53.288
0.3642197 	 5.3799783 	 306.5130 	 1.055 	 53.268
0.3712273 	 5.5927601 	 314.6990 	 1.058 	 53.257
0.3780437 	 5.8123276 	 326.6345 	 1.059 	 53.258
0.3846737 	 6.0353003 	 336.0034 	 1.062 	 53.243
0.3911199 	 6.2604802 	 345.4904 	 1.063 	 53.205
0.3973900 	 6.4911924 	 357.4691 	 1.065 	 53.222
0.4034944 	 6.7229815 	 368.5312 	 1.066 	 53.181
0.4094410 	 6.9635867 	 379.0740 	 1.068 	 53.187
0.4152349 	 7.2020077 	 387.3653 	 1.070 	 53.148
0.4208811 	 7.4469035 	 399.2857 	 1.071 	 53.143
0.4263937 	 7.6992462 	 408.0257 	 1.072 	 53.145
0.4317703 	 7.9516102 	 415.9420 	 1.074 	 53.125
0.4370114 	 8.2078006 	 423.4756 	 1.076 	 53.118
0.4421353 	 8.4710889 	 434.6047 	 1.078 	 53.100
0.4471343 	 8.7336788 	 447.6583 	 1.078 	 53.101
0.4520223 	 9.0009137 	 457.7700 	 1.079 	 53.077
0.4567949 	 9.2742510 	 470.6957 	 1.080 	 53.052
0.4614617 	 9.5465154 	 486.0067 	 1.081 	 53.049
0.4660256 	 9.8293793 	 497.5682 	 1.082 	 53.043
0.4704872 	 10.1096750 	 506.7470 	 1.083 	 53.017
0.4748551 	 10.3988542 	 516.9496 	 1.083 	 53.022
0.4791267 	 10.6882560 	 529.6274 	 1.085 	 52.998
0.4833078 	 10.9850086 	 535.6787 	 1.086 	 52.995
0.4874034 	 11.2840732 	 541.6884 	 1.087 	 52.976
0.4914123 	 11.5840184 	 549.7074 	 1.086 	 52.964
0.4953430 	 11.8910353 	 560.4635 	 1.087 	 52.964
0.4991894 	 12.1995035 	 572.0796 	 1.088 	 52.944
0.5029610 	 12.5125456 	 587.1891 	 1.088 	 52.969
0.5066602 	 12.8263747 	 594.5002 	 1.089 	 52.914
0.5102852 	 13.1488337 	 607.1100 	 1.090 	 52.930
0.5138391 	 13.4788294 	 621.5642 	 1.090 	 52.927
0.5173247 	 13.8086497 	 633.8608 	 1.091 	 52.895
0.5207435 	 14.1418202 	 646.7463 	 1.091 	 52.916
0.5240988 	 14.4750306 	 656.2901 	 1.092 	 52.887
0.5273913 	 14.8193742 	 669.9577 	 1.091 	 52.877
0.5306241 	 15.1630421 	 679.1194 	 1.091 	 52.879
0.5337978 	 15.5120338 	 695.0738 	 1.092 	 52.870
0.5369151 	 15.8640186 	 712.6532 	 1.091 	 52.887
0.5399759 	 16.2150749 	 737.6316 	 1.091 	 52.856
0.5429833 	 16.5774865 	 763.4075 	 1.090 	 52.836
0.5459370 	 16.9414316 	 791.9838 	 1.090 	 52.813
0.5488398 	 17.3136330 	 830.5967 	 1.089 	 52.830
0.5516913 	 17.6933160 	 887.0898 	 1.087 	 52.817
0.5544935 	 18.0691910 	 943.8129 	 1.087 	 52.809
0.5572459 	 18.4541464 	 1034.8931 	 1.086 	 52.800
0.5599518 	 18.8381820 	 1173.3829 	 1.083 	 52.781
0.5626117 	 19.2453852 	 1367.5142 	 1.082 	 52.809
0.5652250 	 19.6416695 	 1669.5857 	 1.081 	 52.782
0.5677950 	 20.0539339 	 2101.5359 	 1.080 	 52.770
0.5703215 	 20.4804744 	 2705.5741 	 1.078 	 52.798
0.5728012 	 20.9161530 	 3674.7615 	 1.077 	 52.775
0.5752378 	 21.3654909 	 5123.6442 	 1.076 	 52.783
0.5776330 	 21.8205237 	 7430.4847 	 1.073 	 52.740
0.5799811 	 22.3155067 	 10876.6250 	 1.071 	 52.771
0.5822846 	 22.8138633 	 15940.7516 	 1.070 	 52.739
0.5845448 	 23.3369790 	 23618.0721 	 1.070 	 52.771
0.5867594 	 23.8864248 	 33875.9573 	 1.067 	 52.747
0.5889288 	 24.4550708 	 48413.9240 	 1.066 	 52.765
0.5910536 	 25.0536492 	 67035.9000 	 1.065 	 52.769
0.5931314 	 25.6817435 	 90242.4425 	 1.064 	 52.760
0.5951619 	 26.3531511 	 118543.1061 	 1.064 	 52.783
0.5971449 	 27.0312575 	 149521.1436 	 1.064 	 52.742
0.5990819 	 27.7746206 	 183543.6252 	 1.065 	 52.734
0.6009698 	 28.5283996 	 217339.9692 	 1.065 	 52.717
0.6028113 	 29.3265519 	 250893.9531 	 1.066 	 52.711
0.6046075 	 30.1614032 	 284914.9096 	 1.066 	 52.711
0.6063569 	 31.0096005 	 316260.1467 	 1.065 	 52.673
0.6080609 	 31.9070694 	 343835.3322 	 1.064 	 52.669
0.6097209 	 32.8072799 	 362745.4665 	 1.062 	 52.658
0.6113373 	 33.7530658 	 376308.8402 	 1.060 	 52.647
0.6129123 	 34.7074587 	 381630.7001 	 1.057 	 52.654
0.6144468 	 35.6989979 	 386313.0566 	 1.053 	 52.612
0.6159417 	 36.7249858 	 389538.7773 	 1.049 	 52.613
0.6173954 	 37.7885961 	 395090.0100 	 1.046 	 52.613
0.6188112 	 38.8940780 	 406570.5434 	 1.043 	 52.582
0.6201891 	 40.0575441 	 421424.9126 	 1.041 	 52.583
0.6215272 	 41.2446991 	 437978.9558 	 1.040 	 52.577
0.6228282 	 42.4985389 	 455836.4997 	 1.042 	 52.554
0.6240932 	 43.8236797 	 466400.1434 	 1.045 	 52.565
0.6253216 	 45.1512086 	 471386.1208 	 1.051 	 52.548
0.6265149 	 46.5054124 	 465217.2997 	 1.061 	 52.549
0.6276751 	 47.8905173 	 451372.2529 	 1.073 	 52.530
0.6288037 	 49.2537887 	 429788.7929 	 1.091 	 52.517
0.6299046 	 50.6442593 	 410344.7342 	 1.112 	 52.522
