N=60 	 R=1000000 	 s=1 	 Save [density, Z, rho_t, like/unlike, events per sweep]
0.0002273 	 1.0008554 	 1.1028 	 0.997 	 7.113
0.0220748 	 1.1832201 	 12.0116 	 0.959 	 35.148
0.0428925 	 1.2260835 	 22.5651 	 0.998 	 47.985
0.0626117 	 1.3036916 	 33.0199 	 1.006 	 51.568
0.0813155 	 1.3960894 	 43.6506 	 1.008 	 52.632
0.0991060 	 1.4968034 	 53.7038 	 1.010 	 53.140
0.1160523 	 1.6043603 	 64.8986 	 1.011 	 53.368
0.1322288 	 1.7184695 	 75.1536 	 1.014 	 53.463
0.1476687 	 1.8367586 	 85.8037 	 1.014 	 53.603
0.1624196 	 1.9619838 	 96.1488 	 1.017 	 53.577
0.1765413 	 2.0923542 	 106.9507 	 1.019 	 53.565
0.1900725 	 2.2263402 	 117.3414 	 1.021 	 53.530
0.2030408 	 2.3656856 	 127.3948 	 1.023 	 53.514
0.2154903 	 2.5085417 	 138.0905 	 1.024 	 53.482
0.2274672 	 2.6567882 	 148.2871 	 1.027 	 53.473
0.2389710 	 2.8087692 	 157.2908 	 1.029 	 53.460
0.2500594 	 2.9653165 	 168.4019 	 1.031 	 53.452
0.2607404 	 3.1268892 	 179.4460 	 1.033 	 53.450
0.2710295 	 3.2912759 	 191.2836 	 1.035 	 53.424
0.2809590 	 3.4603978 	 201.1017 	 1.037 	 53.406
0.2905584 	 3.6337136 	 211.4348 	 1.039 	 53.398
0.2998245 	 3.8123942 	 222.3585 	 1.041 	 53.395
0.3087951 	 3.9932017 	 232.0115 	 1.043 	 53.353
0.3174736 	 4.1786800 	 244.9511 	 1.044 	 53.347
0.3258693 	 4.3699846 	 255.1136 	 1.046 	 53.349
0.3340128 	 4.5635364 	 265.2780 	 1.048 	 53.342
0.3419065 	 4.7618657 	 275.2554 	 1.050 	 53.334
0.3495658 	 4.9626265 	 289.1441 	 1.052 	 53.303
0.3569964 	 5.1693654 	 298.4717 	 1.054 	 53.279
0.3642141 	 5.3774372 	 309.9432 	 1.056 	 53.262
0.3712232 	 5.5927024 	 320.2840 	 1.059 	 53.253
0.3780375 	 5.8100117 	 329.9563 	 1.059 	 53.224
0.3846597 	 6.0311880 	 341.0402 	 1.061 	 53.213
0.3911007 	 6.2585163 	 352.2007 	 1.063 	 53.218
0.3973729 	 6.4880078 	 361.2889 	 1.064 	 53.180
0.4034743 	 6.7243024 	 371.1058 	 1.067 	 53.196
0.4094232 	 6.9619552 	 383.0017 	 1.068 	 53.175
0.4152179 	 7.2026163 	 392.9709 	 1.070 	 53.164
0.4208688 	 7.4475111 	 406.0291 	 1.072 	 53.131
0.4263775 	 7.6996881 	 414.3263 	 1.074 	 53.143
0.4317541 	 7.9492715 	 426.0024 	 1.074 	 53.128
0.4370009 	 8.2063344 	 439.1141 	 1.076 	 53.115
0.4421213 	 8.4716131 	 450.5972 	 1.078 	 53.133
0.4471239 	 8.7344872 	 457.8709 	 1.079 	 53.099
0.4520083 	 9.0014285 	 465.9296 	 1.081 	 53.068
0.4567811 	 9.2744290 	 478.8690 	 1.081 	 53.061
0.4614487 	 9.5490421 	 490.8038 	 1.082 	 53.071
0.4660114 	 9.8285619 	 501.1079 	 1.082 	 53.045
0.4704722 	 10.1116134 	 510.9275 	 1.084 	 53.013
0.4748403 	 10.3973058 	 522.7923 	 1.085 	 53.015
0.4791131 	 10.6914159 	 533.7687 	 1.085 	 53.016
0.4832978 	 10.9860778 	 547.1975 	 1.086 	 52.990
0.4873918 	 11.2826936 	 560.0590 	 1.088 	 52.990
0.4914031 	 11.5823798 	 567.2507 	 1.087 	 52.954
0.4953320 	 11.8890399 	 582.2590 	 1.088 	 52.947
0.4991821 	 12.2008773 	 595.9961 	 1.089 	 52.961
0.5029550 	 12.5174311 	 604.7253 	 1.090 	 52.943
0.5066544 	 12.8322877 	 616.8159 	 1.089 	 52.933
0.5102781 	 13.1543369 	 630.2951 	 1.089 	 52.923
0.5138313 	 13.4804544 	 647.2306 	 1.090 	 52.925
0.5173188 	 13.8105093 	 656.8567 	 1.089 	 52.922
0.5207376 	 14.1405480 	 672.2956 	 1.089 	 52.903
0.5240924 	 14.4726029 	 681.8065 	 1.089 	 52.902
0.5273863 	 14.8195768 	 691.1022 	 1.088 	 52.880
0.5306192 	 15.1650773 	 708.9140 	 1.088 	 52.869
0.5337909 	 15.5069276 	 721.0470 	 1.087 	 52.845
0.5369083 	 15.8662103 	 734.5485 	 1.087 	 52.868
0.5399693 	 16.2176426 	 761.0246 	 1.088 	 52.837
0.5429750 	 16.5777761 	 786.6642 	 1.088 	 52.841
0.5459292 	 16.9530570 	 813.9925 	 1.087 	 52.862
0.5488285 	 17.3133784 	 853.1619 	 1.087 	 52.823
0.5516791 	 17.6894329 	 899.7052 	 1.086 	 52.825
0.5544813 	 18.0606071 	 953.8612 	 1.086 	 52.820
0.5572340 	 18.4415980 	 1042.3134 	 1.083 	 52.807
0.5599420 	 18.8297613 	 1144.2831 	 1.084 	 52.804
0.5626061 	 19.2338191 	 1300.0821 	 1.084 	 52.789
0.5652199 	 19.6366069 	 1551.0795 	 1.083 	 52.815
0.5677918 	 20.0315410 	 1959.9992 	 1.083 	 52.762
0.5703206 	 20.4489018 	 2663.4067 	 1.084 	 52.775
0.5728052 	 20.8616000 	 3952.5399 	 1.084 	 52.778
0.5752495 	 21.2647408 	 6494.7171 	 1.086 	 52.742
0.5776575 	 21.6795996 	 11055.9386 	 1.090 	 52.759
0.5800274 	 22.1102052 	 18636.6986 	 1.094 	 52.755
0.5823573 	 22.5220786 	 30719.5596 	 1.100 	 52.751
0.5846485 	 22.9873305 	 46414.4172 	 1.106 	 52.722
0.5869017 	 23.4809617 	 66214.3750 	 1.113 	 52.738
0.5891128 	 24.0039263 	 88650.7017 	 1.118 	 52.745
0.5912792 	 24.5703021 	 111627.0186 	 1.122 	 52.735
0.5933990 	 25.1953118 	 134488.6496 	 1.123 	 52.723
0.5954693 	 25.8683517 	 155575.9888 	 1.124 	 52.738
0.5974910 	 26.5860689 	 175039.9574 	 1.122 	 52.715
0.5994625 	 27.3440341 	 192754.1319 	 1.118 	 52.725
0.6013821 	 28.1550622 	 210357.0164 	 1.113 	 52.728
0.6032513 	 28.9873001 	 226558.2836 	 1.108 	 52.740
0.6050690 	 29.8565501 	 240488.2548 	 1.102 	 52.718
0.6068370 	 30.7620618 	 253244.4223 	 1.095 	 52.725
0.6085550 	 31.6942027 	 265272.4227 	 1.087 	 52.721
0.6102261 	 32.6826026 	 275950.7034 	 1.081 	 52.725
0.6118500 	 33.6987587 	 284980.6413 	 1.074 	 52.732
0.6134267 	 34.7535924 	 291739.8628 	 1.067 	 52.752
0.6149585 	 35.8450727 	 297298.3401 	 1.060 	 52.764
0.6164454 	 36.9542249 	 300826.2502 	 1.052 	 52.752
0.6178891 	 38.0992375 	 306429.3192 	 1.043 	 52.758
0.6192926 	 39.2916121 	 316153.4454 	 1.033 	 52.776
0.6206554 	 40.4918925 	 327607.7785 	 1.023 	 52.774
0.6219800 	 41.7300435 	 343538.8911 	 1.012 	 52.778
0.6232676 	 43.0092427 	 363896.4324 	 1.000 	 52.787
0.6245181 	 44.3472062 	 386342.0839 	 0.989 	 52.826
0.6257328 	 45.6856050 	 410996.3429 	 0.978 	 52.830
0.6269129 	 47.0828993 	 438426.7482 	 0.967 	 52.843
0.6280581 	 48.5467401 	 467644.2352 	 0.958 	 52.845
0.6291711 	 50.0399933 	 496004.8480 	 0.950 	 52.861
