N=60 	 R=1000000 	 s=1 	 Save [density, Z, rho_t, like/unlike, events per sweep]
0.0002252 	 1.0008511 	 1.1027 	 0.999 	 7.112
0.0220637 	 1.1832151 	 11.9654 	 0.960 	 35.137
0.0428730 	 1.2259996 	 22.5804 	 0.998 	 47.967
0.0626093 	 1.3036511 	 32.9963 	 1.006 	 51.547
0.0813072 	 1.3960213 	 43.4765 	 1.008 	 52.626
0.0991035 	 1.4966042 	 54.1362 	 1.010 	 53.133
0.1160534 	 1.6041376 	 64.5627 	 1.011 	 53.331
0.1322208 	 1.7184119 	 75.2423 	 1.014 	 53.479
0.1476664 	 1.8365411 	 86.4719 	 1.014 	 53.592
0.1624311 	 1.9620818 	 96.6100 	 1.017 	 53.570
0.1765498 	 2.0925080 	 107.3231 	 1.019 	 53.568
0.1900660 	 2.2266445 	 118.0822 	 1.021 	 53.524
0.2030499 	 2.3661506 	 129.3742 	 1.023 	 53.528
0.2155102 	 2.5093554 	 140.5193 	 1.026 	 53.504
0.2274818 	 2.6571763 	 150.3622 	 1.027 	 53.480
0.2389906 	 2.8091852 	 161.9771 	 1.029 	 53.462
0.2500652 	 2.9656444 	 172.2029 	 1.031 	 53.454
0.2607408 	 3.1263999 	 181.5126 	 1.033 	 53.439
0.2710365 	 3.2912740 	 190.4819 	 1.035 	 53.437
0.2809713 	 3.4601561 	 200.6118 	 1.037 	 53.412
0.2905624 	 3.6345245 	 211.3347 	 1.039 	 53.407
0.2998425 	 3.8124570 	 223.3909 	 1.041 	 53.396
0.3088082 	 3.9940008 	 233.5257 	 1.043 	 53.372
0.3174781 	 4.1799685 	 245.0982 	 1.045 	 53.364
0.3258806 	 4.3688230 	 256.7158 	 1.047 	 53.344
0.3340238 	 4.5630663 	 267.4672 	 1.048 	 53.320
0.3419144 	 4.7610897 	 279.7397 	 1.051 	 53.312
0.3495693 	 4.9636455 	 293.3831 	 1.053 	 53.299
0.3569977 	 5.1688567 	 303.3775 	 1.054 	 53.284
0.3642109 	 5.3786817 	 311.2593 	 1.056 	 53.271
0.3712218 	 5.5939958 	 321.0845 	 1.058 	 53.267
0.3780386 	 5.8125057 	 334.0234 	 1.059 	 53.249
0.3846662 	 6.0342149 	 343.5917 	 1.062 	 53.232
0.3911146 	 6.2586387 	 356.6009 	 1.064 	 53.209
0.3973892 	 6.4908807 	 367.3417 	 1.065 	 53.206
0.4035007 	 6.7220957 	 376.6336 	 1.067 	 53.172
0.4094498 	 6.9617155 	 389.1849 	 1.069 	 53.170
0.4152485 	 7.2016907 	 401.0833 	 1.070 	 53.155
0.4208962 	 7.4497727 	 412.7807 	 1.072 	 53.150
0.4264066 	 7.7003338 	 427.9346 	 1.073 	 53.161
0.4317771 	 7.9520128 	 439.4380 	 1.075 	 53.126
0.4370255 	 8.2094260 	 455.1817 	 1.075 	 53.120
0.4421496 	 8.4668832 	 461.6352 	 1.076 	 53.070
0.4471475 	 8.7329419 	 471.8058 	 1.078 	 53.075
0.4520323 	 9.0009366 	 480.8182 	 1.079 	 53.099
0.4568095 	 9.2769832 	 494.6912 	 1.081 	 53.070
0.4614766 	 9.5514454 	 500.6376 	 1.081 	 53.052
0.4660404 	 9.8343114 	 508.4048 	 1.083 	 53.057
0.4705004 	 10.1150283 	 519.7223 	 1.083 	 53.048
0.4748639 	 10.4004820 	 531.4352 	 1.084 	 53.017
0.4791357 	 10.6939772 	 538.4761 	 1.086 	 53.009
0.4833165 	 10.9870126 	 546.9302 	 1.086 	 52.991
0.4874105 	 11.2828540 	 558.0653 	 1.087 	 52.981
0.4914200 	 11.5815800 	 570.3273 	 1.088 	 52.956
0.4953506 	 11.8932820 	 585.4689 	 1.088 	 52.955
0.4991994 	 12.2013907 	 599.8035 	 1.089 	 52.946
0.5029686 	 12.5171293 	 611.3585 	 1.089 	 52.950
0.5066658 	 12.8380293 	 623.3295 	 1.089 	 52.946
0.5102899 	 13.1572151 	 637.2595 	 1.090 	 52.925
0.5138451 	 13.4805340 	 646.7106 	 1.090 	 52.919
0.5173298 	 13.8137893 	 658.2758 	 1.092 	 52.897
0.5207490 	 14.1381498 	 666.6362 	 1.092 	 52.872
0.5241042 	 14.4814478 	 678.7865 	 1.091 	 52.891
0.5273971 	 14.8201963 	 688.1996 	 1.091 	 52.888
0.5306308 	 15.1659792 	 709.0267 	 1.090 	 52.880
0.5338026 	 15.5084512 	 719.9305 	 1.090 	 52.861
0.5369181 	 15.8669984 	 742.3116 	 1.089 	 52.851
0.5399772 	 16.2265431 	 766.6554 	 1.089 	 52.858
0.5429828 	 16.5875218 	 791.2545 	 1.088 	 52.860
0.5459352 	 16.9472865 	 821.6841 	 1.088 	 52.831
0.5488361 	 17.3088208 	 857.7609 	 1.085 	 52.834
0.5516862 	 17.6818536 	 920.4448 	 1.085 	 52.831
0.5544904 	 18.0584645 	 1021.3878 	 1.084 	 52.830
0.5572473 	 18.4254035 	 1197.2909 	 1.083 	 52.803
0.5599565 	 18.8045537 	 1511.1956 	 1.080 	 52.805
0.5626221 	 19.1869397 	 2046.4861 	 1.077 	 52.810
0.5652472 	 19.5548496 	 3087.6525 	 1.074 	 52.802
0.5678298 	 19.9299929 	 4915.9295 	 1.071 	 52.795
0.5703741 	 20.3055302 	 8302.8445 	 1.065 	 52.821
0.5728796 	 20.6849230 	 13665.5464 	 1.061 	 52.798
0.5753486 	 21.0680739 	 21941.8028 	 1.054 	 52.801
0.5777799 	 21.4688771 	 34456.6829 	 1.047 	 52.800
0.5801729 	 21.8991292 	 49354.6231 	 1.043 	 52.786
0.5825248 	 22.3639381 	 68568.4009 	 1.038 	 52.782
0.5848320 	 22.8675749 	 90096.2458 	 1.035 	 52.781
0.5870954 	 23.4103523 	 113494.6620 	 1.033 	 52.772
0.5893091 	 24.0134537 	 137742.7733 	 1.031 	 52.772
0.5914749 	 24.6460782 	 161962.3477 	 1.032 	 52.762
0.5935893 	 25.3149099 	 186665.6802 	 1.033 	 52.742
0.5956525 	 26.0261744 	 210562.9595 	 1.035 	 52.738
0.5976618 	 26.7724661 	 232229.0745 	 1.037 	 52.729
0.5996164 	 27.5575556 	 252215.9999 	 1.040 	 52.704
0.6015199 	 28.3780553 	 271418.3989 	 1.043 	 52.693
0.6033729 	 29.2235407 	 286460.7676 	 1.047 	 52.691
0.6051747 	 30.1082772 	 300592.7753 	 1.050 	 52.653
0.6069276 	 31.0237946 	 309248.8207 	 1.054 	 52.669
0.6086313 	 31.9737534 	 316485.3017 	 1.059 	 52.652
0.6102862 	 32.9494540 	 323554.2342 	 1.063 	 52.625
0.6118973 	 33.9761261 	 326610.0035 	 1.068 	 52.626
0.6134612 	 35.0549538 	 326932.2711 	 1.073 	 52.622
0.6149798 	 36.1321641 	 325720.8278 	 1.077 	 52.591
0.6164539 	 37.2788801 	 322805.3773 	 1.081 	 52.608
0.6178851 	 38.4656132 	 318057.1328 	 1.085 	 52.583
0.6192746 	 39.6759712 	 313659.4440 	 1.089 	 52.544
0.6206237 	 40.9594824 	 306876.5101 	 1.092 	 52.542
0.6219322 	 42.2631425 	 299410.0711 	 1.095 	 52.516
0.6232021 	 43.6090848 	 292540.9039 	 1.097 	 52.491
0.6244349 	 45.0048216 	 288438.5401 	 1.100 	 52.487
0.6256290 	 46.4626234 	 285143.8741 	 1.103 	 52.477
0.6267877 	 47.9361500 	 284630.9119 	 1.106 	 52.457
0.6279109 	 49.4759892 	 285691.6063 	 1.107 	 52.429
0.6290013 	 51.0898976 	 288199.3290 	 1.110 	 52.433
