N=60 	 R=1000000 	 s=1 	 Save [density, Z, rho_t, like/unlike, events per sweep]
0.0002255 	 1.0008558 	 1.1027 	 1.004 	 7.113
0.0220613 	 1.1832230 	 11.9822 	 0.960 	 35.138
0.0428621 	 1.2260287 	 22.6028 	 0.998 	 47.973
0.0625852 	 1.3035321 	 33.0747 	 1.006 	 51.557
0.0812991 	 1.3961337 	 43.5801 	 1.008 	 52.655
0.0990908 	 1.4966832 	 54.2287 	 1.010 	 53.132
0.1160622 	 1.6043023 	 64.6384 	 1.011 	 53.359
0.1322405 	 1.7182524 	 74.7643 	 1.012 	 53.454
0.1476809 	 1.8365840 	 84.8768 	 1.014 	 53.584
0.1624380 	 1.9619885 	 95.1624 	 1.017 	 53.562
0.1765641 	 2.0920095 	 105.3067 	 1.019 	 53.551
0.1900952 	 2.2265700 	 114.8051 	 1.021 	 53.529
0.2030753 	 2.3660257 	 125.8884 	 1.024 	 53.526
0.2155332 	 2.5094647 	 136.9726 	 1.025 	 53.495
0.2274984 	 2.6574843 	 147.6817 	 1.027 	 53.481
0.2390039 	 2.8097952 	 159.6738 	 1.029 	 53.450
0.2500865 	 2.9668159 	 170.3407 	 1.030 	 53.461
0.2607670 	 3.1271871 	 180.1914 	 1.033 	 53.435
0.2710596 	 3.2914851 	 191.2209 	 1.035 	 53.408
0.2809967 	 3.4611019 	 202.3314 	 1.037 	 53.394
0.2905901 	 3.6350533 	 212.0000 	 1.039 	 53.389
0.2998649 	 3.8120366 	 222.3528 	 1.040 	 53.367
0.3088323 	 3.9941685 	 234.6029 	 1.043 	 53.355
0.3175052 	 4.1799926 	 246.9819 	 1.045 	 53.365
0.3259044 	 4.3698281 	 255.9629 	 1.046 	 53.356
0.3340487 	 4.5641440 	 267.1369 	 1.048 	 53.342
0.3419408 	 4.7624905 	 277.9674 	 1.050 	 53.317
0.3495995 	 4.9632549 	 287.9078 	 1.052 	 53.285
0.3570311 	 5.1700776 	 300.0218 	 1.054 	 53.285
0.3642459 	 5.3795723 	 311.7677 	 1.057 	 53.271
0.3712556 	 5.5940325 	 320.2828 	 1.058 	 53.247
0.3780696 	 5.8128051 	 331.6626 	 1.060 	 53.243
0.3846971 	 6.0351204 	 344.5216 	 1.062 	 53.218
0.3911400 	 6.2605591 	 356.9034 	 1.064 	 53.208
0.3974106 	 6.4913211 	 368.1254 	 1.066 	 53.210
0.4035189 	 6.7240915 	 375.6858 	 1.066 	 53.171
0.4094699 	 6.9634712 	 384.2088 	 1.069 	 53.193
0.4152672 	 7.2059347 	 393.2161 	 1.070 	 53.177
0.4209143 	 7.4509426 	 404.7229 	 1.071 	 53.152
0.4264272 	 7.7004522 	 414.4443 	 1.073 	 53.118
0.4317980 	 7.9551659 	 423.9097 	 1.074 	 53.143
0.4370468 	 8.2094273 	 438.1161 	 1.077 	 53.107
0.4421702 	 8.4684110 	 445.3119 	 1.077 	 53.074
0.4471718 	 8.7366294 	 455.3065 	 1.079 	 53.091
0.4520550 	 9.0051853 	 466.6832 	 1.078 	 53.076
0.4568307 	 9.2747028 	 479.0276 	 1.080 	 53.065
0.4614960 	 9.5483663 	 490.1216 	 1.081 	 53.037
0.4660558 	 9.8336994 	 499.3699 	 1.083 	 53.041
0.4705173 	 10.1128065 	 511.7891 	 1.083 	 53.045
0.4748813 	 10.4039768 	 526.2649 	 1.084 	 53.029
0.4791534 	 10.6918341 	 536.7153 	 1.085 	 52.996
0.4833346 	 10.9821423 	 544.8640 	 1.086 	 52.982
0.4874305 	 11.2840651 	 559.0563 	 1.086 	 52.989
0.4914387 	 11.5883773 	 572.6674 	 1.087 	 52.982
0.4953628 	 11.8913301 	 580.5588 	 1.088 	 52.956
0.4992111 	 12.2031097 	 591.5672 	 1.089 	 52.956
0.5029779 	 12.5225241 	 600.6323 	 1.089 	 52.955
0.5066698 	 12.8334925 	 613.2076 	 1.088 	 52.929
0.5102947 	 13.1511083 	 625.9334 	 1.089 	 52.924
0.5138501 	 13.4822719 	 641.3722 	 1.090 	 52.920
0.5173347 	 13.8069623 	 652.6956 	 1.089 	 52.906
0.5207540 	 14.1400004 	 667.2573 	 1.090 	 52.889
0.5241102 	 14.4752124 	 679.5916 	 1.089 	 52.877
0.5274033 	 14.8243016 	 696.4947 	 1.091 	 52.876
0.5306341 	 15.1629430 	 710.3759 	 1.090 	 52.851
0.5338046 	 15.5107409 	 722.9977 	 1.090 	 52.868
0.5369193 	 15.8732615 	 738.4336 	 1.091 	 52.848
0.5399763 	 16.2224585 	 758.3780 	 1.090 	 52.846
0.5429834 	 16.5829426 	 781.9148 	 1.089 	 52.839
0.5459372 	 16.9454821 	 807.5363 	 1.088 	 52.824
0.5488387 	 17.3104870 	 849.4402 	 1.087 	 52.814
0.5516903 	 17.6873300 	 912.1253 	 1.086 	 52.808
0.5544909 	 18.0634415 	 1012.4020 	 1.084 	 52.813
0.5572440 	 18.4417032 	 1173.1681 	 1.084 	 52.814
0.5599537 	 18.8268495 	 1481.1236 	 1.083 	 52.812
0.5626158 	 19.2104823 	 2076.9855 	 1.081 	 52.804
0.5652362 	 19.6023290 	 3249.7266 	 1.080 	 52.808
0.5678125 	 19.9942591 	 5637.0283 	 1.077 	 52.813
0.5703490 	 20.3834819 	 9984.5749 	 1.074 	 52.796
0.5728463 	 20.7797529 	 17946.3832 	 1.071 	 52.810
0.5753029 	 21.1788647 	 32275.1500 	 1.068 	 52.805
0.5777219 	 21.5695967 	 56862.7037 	 1.063 	 52.815
0.5801035 	 21.9832425 	 92928.3695 	 1.057 	 52.818
0.5824501 	 22.3912330 	 143122.5943 	 1.050 	 52.820
0.5847608 	 22.8324856 	 209270.2845 	 1.043 	 52.842
0.5870321 	 23.2782895 	 287935.9709 	 1.037 	 52.880
0.5892655 	 23.7396794 	 373719.8035 	 1.032 	 52.888
0.5914604 	 24.2377030 	 461688.6792 	 1.026 	 52.919
0.5936163 	 24.7715148 	 551683.3230 	 1.023 	 52.937
0.5957289 	 25.3495829 	 632796.0934 	 1.020 	 52.947
0.5977980 	 25.9845874 	 703998.7914 	 1.020 	 52.958
0.5998216 	 26.6452638 	 771252.0243 	 1.020 	 52.978
0.6017963 	 27.3619376 	 826901.6905 	 1.019 	 53.004
0.6037235 	 28.1247166 	 871661.8060 	 1.020 	 53.002
0.6056010 	 28.9547380 	 904843.3678 	 1.022 	 53.026
0.6074275 	 29.8179076 	 929549.9660 	 1.022 	 53.026
0.6092049 	 30.7202547 	 947881.9531 	 1.024 	 53.017
0.6109325 	 31.6988599 	 962136.5545 	 1.026 	 53.014
0.6126091 	 32.7038023 	 972534.8731 	 1.028 	 53.029
0.6142363 	 33.7465152 	 978646.7904 	 1.030 	 53.008
0.6158162 	 34.8467359 	 983771.0420 	 1.033 	 53.002
0.6173485 	 35.9963225 	 988715.6881 	 1.035 	 53.034
0.6188333 	 37.1931555 	 991260.4302 	 1.037 	 53.003
0.6202726 	 38.4481384 	 993215.4584 	 1.040 	 52.991
0.6216663 	 39.7238629 	 994546.7894 	 1.044 	 52.986
0.6230167 	 41.0941954 	 995534.1708 	 1.046 	 52.979
0.6243237 	 42.4711790 	 995855.5016 	 1.049 	 52.941
0.6255901 	 43.9473894 	 995700.3485 	 1.051 	 52.935
0.6268147 	 45.4964007 	 995495.6013 	 1.054 	 52.940
0.6279995 	 47.0995993 	 995111.5964 	 1.056 	 52.941
0.6291451 	 48.7440753 	 994373.6740 	 1.060 	 52.926
