N=60 	 R=1000000 	 s=1 	 Save [density, Z, rho_t, like/unlike, events per sweep]
0.0002258 	 1.0008585 	 1.1027 	 0.999 	 7.113
0.0220670 	 1.1832562 	 12.0087 	 0.960 	 35.159
0.0428674 	 1.2260725 	 22.6457 	 0.997 	 47.960
0.0625832 	 1.3036081 	 33.0851 	 1.005 	 51.577
0.0812972 	 1.3961064 	 43.2281 	 1.008 	 52.638
0.0990930 	 1.4967928 	 53.1837 	 1.009 	 53.146
0.1160591 	 1.6046851 	 63.6440 	 1.012 	 53.363
0.1322237 	 1.7182559 	 74.3728 	 1.014 	 53.448
0.1476728 	 1.8362590 	 84.2429 	 1.014 	 53.581
0.1624256 	 1.9624035 	 94.6714 	 1.016 	 53.589
0.1765518 	 2.0918052 	 105.5792 	 1.019 	 53.555
0.1900786 	 2.2270655 	 117.0521 	 1.021 	 53.534
0.2030503 	 2.3657907 	 127.0633 	 1.023 	 53.505
0.2155075 	 2.5097399 	 137.1439 	 1.025 	 53.515
0.2274721 	 2.6565857 	 146.5844 	 1.027 	 53.456
0.2389794 	 2.8089186 	 157.9937 	 1.029 	 53.463
0.2500592 	 2.9659809 	 168.5771 	 1.031 	 53.451
0.2607422 	 3.1260236 	 179.9222 	 1.033 	 53.424
0.2710353 	 3.2913317 	 189.9197 	 1.034 	 53.412
0.2809671 	 3.4601601 	 201.6110 	 1.037 	 53.392
0.2905679 	 3.6333183 	 210.8639 	 1.038 	 53.397
0.2998365 	 3.8124865 	 220.0989 	 1.041 	 53.397
0.3087963 	 3.9933373 	 231.3997 	 1.043 	 53.371
0.3174755 	 4.1786932 	 241.9049 	 1.044 	 53.348
0.3258735 	 4.3702874 	 252.8536 	 1.047 	 53.359
0.3340172 	 4.5620363 	 262.5354 	 1.048 	 53.316
0.3419056 	 4.7608925 	 273.2767 	 1.051 	 53.318
0.3495597 	 4.9627451 	 284.0636 	 1.052 	 53.306
0.3569913 	 5.1701940 	 296.0964 	 1.054 	 53.293
0.3642067 	 5.3792503 	 306.7631 	 1.056 	 53.282
0.3712167 	 5.5912104 	 316.9005 	 1.058 	 53.249
0.3780294 	 5.8117496 	 327.4595 	 1.060 	 53.233
0.3846541 	 6.0350409 	 338.4538 	 1.062 	 53.249
0.3911006 	 6.2591281 	 348.4498 	 1.063 	 53.219
0.3973736 	 6.4911666 	 359.0159 	 1.065 	 53.222
0.4034760 	 6.7214393 	 365.8669 	 1.067 	 53.179
0.4094277 	 6.9620280 	 375.1840 	 1.068 	 53.190
0.4152250 	 7.2050758 	 388.6561 	 1.070 	 53.169
0.4208751 	 7.4467550 	 398.6653 	 1.071 	 53.149
0.4263873 	 7.6957121 	 408.9236 	 1.073 	 53.136
0.4317641 	 7.9519376 	 421.3707 	 1.074 	 53.139
0.4370088 	 8.2064755 	 429.7752 	 1.076 	 53.101
0.4421290 	 8.4666170 	 439.6493 	 1.078 	 53.106
0.4471282 	 8.7334429 	 452.2693 	 1.079 	 53.095
0.4520096 	 9.0015466 	 463.8913 	 1.079 	 53.082
0.4567861 	 9.2712612 	 472.4045 	 1.081 	 53.062
0.4614524 	 9.5507413 	 480.1163 	 1.081 	 53.060
0.4660153 	 9.8287769 	 492.8555 	 1.083 	 53.038
0.4704759 	 10.1144054 	 507.2632 	 1.084 	 53.039
0.4748428 	 10.3988758 	 520.3391 	 1.084 	 53.034
0.4791144 	 10.6849112 	 531.2883 	 1.086 	 52.993
0.4832998 	 10.9833200 	 540.1969 	 1.087 	 52.996
0.4873980 	 11.2799512 	 548.8113 	 1.088 	 52.966
0.4914061 	 11.5853537 	 561.6969 	 1.087 	 52.975
0.4953341 	 11.8901554 	 574.2453 	 1.089 	 52.958
0.4991840 	 12.2001953 	 582.4906 	 1.090 	 52.947
0.5029561 	 12.5168255 	 593.1572 	 1.091 	 52.941
0.5066522 	 12.8334146 	 606.4140 	 1.092 	 52.950
0.5102759 	 13.1585016 	 620.1028 	 1.091 	 52.951
0.5138287 	 13.4826670 	 630.7648 	 1.092 	 52.923
0.5173127 	 13.8146784 	 642.8942 	 1.092 	 52.915
0.5207308 	 14.1471360 	 655.7904 	 1.092 	 52.919
0.5240848 	 14.4813712 	 670.7239 	 1.091 	 52.886
0.5273775 	 14.8190731 	 686.4481 	 1.092 	 52.892
0.5306096 	 15.1652979 	 702.8203 	 1.092 	 52.853
0.5337839 	 15.5131949 	 721.5157 	 1.091 	 52.858
0.5368986 	 15.8658369 	 743.7084 	 1.091 	 52.853
0.5399597 	 16.2288488 	 760.4764 	 1.093 	 52.846
0.5429641 	 16.5859732 	 789.6623 	 1.091 	 52.849
0.5459149 	 16.9510158 	 820.1909 	 1.090 	 52.838
0.5488110 	 17.3343853 	 854.5582 	 1.089 	 52.836
0.5516579 	 17.7012480 	 892.5156 	 1.089 	 52.808
0.5544564 	 18.0778074 	 959.6008 	 1.088 	 52.810
0.5572092 	 18.4660910 	 1035.5858 	 1.087 	 52.809
0.5599132 	 18.8456146 	 1171.9592 	 1.085 	 52.800
0.5625711 	 19.2570581 	 1378.8706 	 1.084 	 52.840
0.5651839 	 19.6502712 	 1660.2964 	 1.082 	 52.770
0.5677524 	 20.0603233 	 2072.5457 	 1.082 	 52.798
0.5702761 	 20.4878227 	 2656.8083 	 1.078 	 52.788
0.5727562 	 20.9194208 	 3434.7947 	 1.079 	 52.771
0.5751906 	 21.3650678 	 4486.8552 	 1.077 	 52.789
0.5775826 	 21.8345065 	 5802.6952 	 1.076 	 52.777
0.5799303 	 22.3249617 	 7312.2702 	 1.075 	 52.755
0.5822322 	 22.8471225 	 9049.6367 	 1.076 	 52.763
0.5844879 	 23.4086965 	 10924.5494 	 1.077 	 52.785
0.5866958 	 23.9633737 	 12989.0709 	 1.078 	 52.735
0.5888557 	 24.5725609 	 15135.3299 	 1.079 	 52.756
0.5909678 	 25.1863480 	 17661.1495 	 1.078 	 52.722
0.5930341 	 25.8190454 	 20699.2999 	 1.077 	 52.742
0.5950535 	 26.4596574 	 24892.2475 	 1.074 	 52.748
0.5970295 	 27.1202019 	 31381.9512 	 1.069 	 52.738
0.5989646 	 27.7508833 	 42973.5960 	 1.061 	 52.715
0.6008581 	 28.3703697 	 64520.1730 	 1.047 	 52.698
0.6027172 	 28.9510471 	 105308.7351 	 1.028 	 52.700
0.6045445 	 29.4933222 	 175302.5395 	 1.005 	 52.705
0.6063444 	 30.0290631 	 274591.4099 	 0.980 	 52.663
0.6081151 	 30.5722140 	 403661.3235 	 0.956 	 52.618
0.6098582 	 31.1806344 	 543167.1838 	 0.936 	 52.602
0.6115678 	 31.8877047 	 670940.7275 	 0.920 	 52.573
0.6132420 	 32.6804984 	 779583.5257 	 0.908 	 52.529
0.6148764 	 33.5841620 	 858931.1254 	 0.902 	 52.524
0.6164689 	 34.5572640 	 913293.5486 	 0.898 	 52.482
0.6180165 	 35.6229868 	 946398.7226 	 0.897 	 52.488
0.6195212 	 36.7408641 	 968700.0830 	 0.898 	 52.436
0.6209802 	 37.9289501 	 982261.4088 	 0.898 	 52.428
0.6223957 	 39.1818233 	 989789.9856 	 0.900 	 52.422
0.6237684 	 40.4644677 	 994240.9616 	 0.902 	 52.392
0.6250982 	 41.8301069 	 996885.3009 	 0.904 	 52.388
0.6263864 	 43.2278244 	 997985.4506 	 0.907 	 52.337
0.6276340 	 44.6988282 	 999150.2667 	 0.908 	 52.339
0.6288425 	 46.2371551 	 999582.0594 	 0.912 	 52.343
0.6300114 	 47.8015792 	 999892.0041 	 0.915 	 52.305
