N=60 	 R=1000000 	 s=1 	 Save [density, Z, rho_t, like/unlike, events per sweep]
0.0002250 	 1.0008512 	 1.1027 	 0.993 	 7.112
0.0220469 	 1.1832850 	 11.9971 	 0.960 	 35.140
0.0428576 	 1.2260211 	 22.6242 	 0.998 	 47.940
0.0625692 	 1.3034364 	 33.0559 	 1.006 	 51.572
0.0812706 	 1.3959988 	 43.4996 	 1.008 	 52.639
0.0990764 	 1.4965657 	 53.7946 	 1.009 	 53.121
0.1160235 	 1.6039679 	 64.1985 	 1.011 	 53.331
0.1322037 	 1.7182371 	 74.6777 	 1.013 	 53.454
0.1476467 	 1.8362789 	 85.0821 	 1.015 	 53.592
0.1623989 	 1.9620264 	 95.2619 	 1.017 	 53.580
0.1765298 	 2.0918033 	 105.2212 	 1.019 	 53.561
0.1900526 	 2.2266686 	 116.1353 	 1.021 	 53.534
0.2030294 	 2.3656631 	 126.0887 	 1.023 	 53.498
0.2154906 	 2.5089019 	 135.8873 	 1.025 	 53.505
0.2274562 	 2.6563762 	 146.2421 	 1.027 	 53.464
0.2389636 	 2.8091177 	 155.4613 	 1.029 	 53.468
0.2500454 	 2.9652848 	 166.4557 	 1.032 	 53.450
0.2607225 	 3.1252503 	 177.3896 	 1.034 	 53.429
0.2710196 	 3.2911011 	 187.4586 	 1.035 	 53.428
0.2809523 	 3.4603478 	 198.1450 	 1.036 	 53.406
0.2905540 	 3.6338257 	 209.5822 	 1.038 	 53.392
0.2998200 	 3.8119026 	 217.4109 	 1.040 	 53.386
0.3087861 	 3.9942249 	 227.9606 	 1.043 	 53.382
0.3174604 	 4.1792674 	 237.9295 	 1.044 	 53.347
0.3258680 	 4.3684599 	 249.5830 	 1.047 	 53.342
0.3340135 	 4.5628416 	 259.9389 	 1.048 	 53.322
0.3419064 	 4.7598872 	 271.5695 	 1.051 	 53.303
0.3495618 	 4.9641724 	 281.7260 	 1.053 	 53.298
0.3569871 	 5.1685049 	 292.0697 	 1.054 	 53.282
0.3641990 	 5.3786480 	 299.9455 	 1.057 	 53.277
0.3712106 	 5.5933269 	 312.0767 	 1.058 	 53.269
0.3780167 	 5.8114282 	 323.0332 	 1.060 	 53.249
0.3846409 	 6.0337469 	 334.5146 	 1.062 	 53.232
0.3910867 	 6.2586920 	 343.4469 	 1.063 	 53.222
0.3973598 	 6.4902723 	 354.1084 	 1.065 	 53.226
0.4034679 	 6.7252069 	 363.7819 	 1.067 	 53.213
0.4094159 	 6.9610019 	 372.9468 	 1.068 	 53.185
0.4152112 	 7.2023044 	 385.4764 	 1.070 	 53.170
0.4208614 	 7.4477203 	 394.8086 	 1.071 	 53.154
0.4263690 	 7.6953557 	 406.7087 	 1.072 	 53.134
0.4317449 	 7.9529757 	 417.5457 	 1.075 	 53.152
0.4369914 	 8.2099016 	 427.5301 	 1.077 	 53.121
0.4421170 	 8.4675343 	 436.8174 	 1.077 	 53.099
0.4471188 	 8.7322038 	 447.9187 	 1.078 	 53.092
0.4520054 	 9.0007846 	 456.3578 	 1.080 	 53.081
0.4567753 	 9.2731211 	 465.9736 	 1.081 	 53.051
0.4614406 	 9.5501515 	 476.1811 	 1.082 	 53.075
0.4660060 	 9.8289306 	 482.7568 	 1.082 	 53.041
0.4704710 	 10.1140976 	 495.3296 	 1.084 	 53.035
0.4748332 	 10.3980770 	 509.8794 	 1.085 	 53.006
0.4791032 	 10.6883861 	 523.3231 	 1.086 	 52.996
0.4832866 	 10.9823351 	 530.6060 	 1.086 	 53.003
0.4873839 	 11.2866156 	 540.4849 	 1.087 	 52.985
0.4913946 	 11.5864999 	 550.6546 	 1.087 	 52.971
0.4953217 	 11.8923745 	 566.2194 	 1.088 	 52.976
0.4991721 	 12.2000555 	 576.9229 	 1.089 	 52.953
0.5029416 	 12.5167863 	 585.5184 	 1.089 	 52.951
0.5066427 	 12.8325962 	 594.9840 	 1.088 	 52.944
0.5102671 	 13.1524511 	 610.4125 	 1.090 	 52.918
0.5138215 	 13.4772715 	 620.5360 	 1.090 	 52.902
0.5173110 	 13.8046140 	 634.0370 	 1.090 	 52.902
0.5207311 	 14.1415750 	 642.6657 	 1.090 	 52.890
0.5240879 	 14.4762866 	 655.4461 	 1.090 	 52.885
0.5273806 	 14.8214838 	 663.4425 	 1.089 	 52.898
0.5306145 	 15.1647095 	 677.9262 	 1.090 	 52.887
0.5337897 	 15.5085050 	 697.0139 	 1.089 	 52.866
0.5369053 	 15.8611319 	 714.6297 	 1.089 	 52.867
0.5399655 	 16.2184052 	 736.5911 	 1.089 	 52.850
0.5429718 	 16.5800123 	 765.7153 	 1.089 	 52.829
0.5459250 	 16.9443734 	 803.0612 	 1.088 	 52.834
0.5488265 	 17.3090319 	 849.4338 	 1.087 	 52.830
0.5516765 	 17.6795507 	 924.5804 	 1.088 	 52.804
0.5544807 	 18.0541245 	 1040.8345 	 1.086 	 52.821
0.5572377 	 18.4358663 	 1221.7464 	 1.086 	 52.804
0.5599486 	 18.8022972 	 1500.0474 	 1.084 	 52.788
0.5626149 	 19.1913519 	 1956.4582 	 1.084 	 52.795
0.5652382 	 19.5844676 	 2649.0322 	 1.083 	 52.788
0.5678159 	 19.9814485 	 3862.0198 	 1.083 	 52.758
0.5703525 	 20.3769732 	 5911.7928 	 1.082 	 52.758
0.5728495 	 20.7851949 	 8776.0733 	 1.083 	 52.754
0.5753043 	 21.2064298 	 13639.0607 	 1.082 	 52.751
0.5777169 	 21.6281797 	 20931.1042 	 1.083 	 52.748
0.5800906 	 22.0726051 	 31888.8468 	 1.083 	 52.746
0.5824208 	 22.5427739 	 47497.2664 	 1.083 	 52.741
0.5847114 	 23.0259496 	 68717.2456 	 1.084 	 52.745
0.5869586 	 23.5510057 	 95202.9330 	 1.085 	 52.748
0.5891611 	 24.1047996 	 124818.7980 	 1.086 	 52.772
0.5913186 	 24.6921282 	 157250.1370 	 1.087 	 52.763
0.5934290 	 25.3120938 	 191252.8885 	 1.088 	 52.756
0.5954924 	 25.9719978 	 226469.6266 	 1.090 	 52.747
0.5975058 	 26.6672314 	 261635.2854 	 1.091 	 52.766
0.5994705 	 27.3805762 	 297775.2373 	 1.093 	 52.786
0.6013885 	 28.1141508 	 336697.1820 	 1.093 	 52.788
0.6032610 	 28.8694563 	 380629.0173 	 1.095 	 52.821
0.6050887 	 29.6332885 	 428697.5164 	 1.095 	 52.880
0.6068743 	 30.4072619 	 485895.1199 	 1.094 	 52.945
0.6086175 	 31.1880901 	 550083.3810 	 1.094 	 52.973
0.6103215 	 31.9860861 	 620551.8908 	 1.093 	 53.045
0.6119860 	 32.8027845 	 692834.4258 	 1.091 	 53.081
0.6136109 	 33.6646321 	 765278.8741 	 1.090 	 53.142
0.6151970 	 34.5713738 	 825390.9763 	 1.089 	 53.172
0.6167440 	 35.5594311 	 874083.5706 	 1.089 	 53.202
0.6182483 	 36.6093336 	 914446.5200 	 1.089 	 53.209
0.6197117 	 37.7317348 	 943473.2203 	 1.089 	 53.243
0.6211342 	 38.9187141 	 964215.3078 	 1.090 	 53.249
0.6225150 	 40.1526170 	 977110.6591 	 1.090 	 53.230
0.6238541 	 41.4558043 	 986262.2424 	 1.091 	 53.202
0.6251516 	 42.8454747 	 992322.6609 	 1.092 	 53.225
0.6264098 	 44.2584496 	 995486.4631 	 1.094 	 53.225
0.6276276 	 45.7631445 	 997628.2374 	 1.095 	 53.226
0.6288072 	 47.2796599 	 998696.7182 	 1.096 	 53.189
0.6299504 	 48.8896068 	 999242.2323 	 1.098 	 53.191
