N=60 	 R=1000000 	 s=1 	 Save [density, Z, rho_t, like/unlike, events per sweep]
0.0002252 	 1.0008540 	 1.1027 	 0.997 	 7.113
0.0220713 	 1.1832645 	 11.9556 	 0.961 	 35.144
0.0428752 	 1.2261371 	 22.7473 	 0.998 	 47.999
0.0626002 	 1.3035368 	 33.0700 	 1.007 	 51.555
0.0813012 	 1.3961681 	 43.4142 	 1.008 	 52.645
0.0991110 	 1.4969437 	 53.7894 	 1.010 	 53.143
0.1160629 	 1.6044935 	 64.2963 	 1.011 	 53.356
0.1322364 	 1.7185780 	 74.2948 	 1.013 	 53.463
0.1476872 	 1.8365215 	 84.8616 	 1.015 	 53.579
0.1624313 	 1.9617778 	 94.9980 	 1.016 	 53.553
0.1765452 	 2.0921960 	 105.2996 	 1.018 	 53.539
0.1900688 	 2.2261944 	 116.2104 	 1.021 	 53.520
0.2030533 	 2.3657125 	 125.9379 	 1.023 	 53.515
0.2154956 	 2.5091413 	 137.1744 	 1.025 	 53.486
0.2274692 	 2.6572724 	 145.7559 	 1.028 	 53.492
0.2389875 	 2.8093256 	 156.0027 	 1.030 	 53.482
0.2500744 	 2.9658323 	 166.8345 	 1.031 	 53.454
0.2607417 	 3.1264342 	 178.0578 	 1.033 	 53.432
0.2710429 	 3.2913152 	 188.5654 	 1.035 	 53.405
0.2809728 	 3.4601685 	 197.9634 	 1.037 	 53.425
0.2905624 	 3.6347499 	 208.4712 	 1.039 	 53.402
0.2998354 	 3.8119192 	 221.2985 	 1.040 	 53.401
0.3087990 	 3.9927632 	 231.3074 	 1.043 	 53.350
0.3174767 	 4.1787626 	 241.8099 	 1.045 	 53.354
0.3258838 	 4.3700930 	 251.7860 	 1.046 	 53.349
0.3340253 	 4.5617790 	 261.6465 	 1.048 	 53.318
0.3419183 	 4.7608388 	 272.5831 	 1.050 	 53.302
0.3495763 	 4.9625769 	 286.0340 	 1.053 	 53.291
0.3570085 	 5.1701367 	 297.2766 	 1.055 	 53.298
0.3642225 	 5.3806648 	 309.1863 	 1.056 	 53.264
0.3712322 	 5.5953929 	 319.6359 	 1.058 	 53.258
0.3780445 	 5.8115937 	 331.6675 	 1.060 	 53.247
0.3846652 	 6.0330818 	 340.7502 	 1.062 	 53.222
0.3911052 	 6.2596955 	 352.6134 	 1.063 	 53.221
0.3973742 	 6.4894822 	 364.3741 	 1.065 	 53.197
0.4034842 	 6.7234316 	 372.0585 	 1.067 	 53.197
0.4094358 	 6.9615278 	 383.1975 	 1.068 	 53.184
0.4152347 	 7.2043470 	 392.9590 	 1.070 	 53.188
0.4208847 	 7.4489326 	 401.9663 	 1.072 	 53.155
0.4263938 	 7.6981380 	 409.5302 	 1.073 	 53.135
0.4317663 	 7.9514379 	 418.1280 	 1.074 	 53.124
0.4370102 	 8.2104029 	 424.3545 	 1.076 	 53.129
0.4421307 	 8.4676315 	 435.5365 	 1.078 	 53.103
0.4471298 	 8.7317425 	 446.9433 	 1.079 	 53.093
0.4520186 	 8.9997283 	 460.9084 	 1.080 	 53.059
0.4567940 	 9.2756327 	 473.2505 	 1.082 	 53.055
0.4614575 	 9.5476540 	 481.9665 	 1.083 	 53.049
0.4660234 	 9.8271799 	 496.8621 	 1.083 	 53.046
0.4704848 	 10.1121634 	 504.0932 	 1.083 	 53.035
0.4748512 	 10.3979661 	 511.4790 	 1.085 	 53.019
0.4791213 	 10.6894160 	 521.6242 	 1.086 	 52.978
0.4833080 	 10.9854328 	 531.6298 	 1.086 	 53.014
0.4874071 	 11.2868150 	 542.7334 	 1.087 	 52.989
0.4914169 	 11.5852758 	 557.6805 	 1.087 	 52.973
0.4953454 	 11.8949809 	 570.2635 	 1.088 	 52.969
0.4991894 	 12.2026232 	 580.2543 	 1.087 	 52.979
0.5029611 	 12.5195021 	 591.4812 	 1.089 	 52.941
0.5066582 	 12.8347302 	 605.6050 	 1.090 	 52.927
0.5102836 	 13.1567221 	 616.0446 	 1.089 	 52.934
0.5138376 	 13.4796800 	 633.4265 	 1.090 	 52.928
0.5173256 	 13.8137295 	 641.9905 	 1.091 	 52.911
0.5207445 	 14.1446626 	 667.0664 	 1.090 	 52.899
0.5241033 	 14.4734263 	 681.1016 	 1.090 	 52.877
0.5273972 	 14.8188422 	 694.8952 	 1.091 	 52.889
0.5306274 	 15.1631589 	 701.3647 	 1.090 	 52.868
0.5337996 	 15.5137737 	 723.3038 	 1.091 	 52.859
0.5369175 	 15.8688550 	 739.9990 	 1.091 	 52.865
0.5399750 	 16.2258106 	 763.7444 	 1.091 	 52.861
0.5429816 	 16.5806505 	 786.1074 	 1.091 	 52.827
0.5459332 	 16.9556895 	 805.6536 	 1.089 	 52.863
0.5488345 	 17.3207100 	 845.0939 	 1.090 	 52.848
0.5516854 	 17.6889075 	 893.8796 	 1.089 	 52.810
0.5544857 	 18.0731707 	 960.8194 	 1.087 	 52.819
0.5572387 	 18.4562418 	 1055.4282 	 1.086 	 52.818
0.5599470 	 18.8363707 	 1198.2229 	 1.085 	 52.790
0.5626089 	 19.2336369 	 1405.6316 	 1.083 	 52.796
0.5652239 	 19.6415782 	 1750.5653 	 1.082 	 52.805
0.5677962 	 20.0317665 	 2373.2142 	 1.080 	 52.779
0.5703247 	 20.4410412 	 3391.5801 	 1.078 	 52.783
0.5728136 	 20.8480983 	 5335.4715 	 1.076 	 52.764
0.5752591 	 21.2653111 	 9072.3677 	 1.074 	 52.778
0.5776683 	 21.6741792 	 15929.9992 	 1.074 	 52.756
0.5800355 	 22.1083403 	 27739.1456 	 1.074 	 52.757
0.5823664 	 22.5538368 	 45342.0832 	 1.074 	 52.742
0.5846565 	 23.0193725 	 70872.1895 	 1.074 	 52.741
0.5869040 	 23.5224700 	 103181.4338 	 1.078 	 52.721
0.5891082 	 24.0787133 	 141065.6211 	 1.078 	 52.696
0.5912664 	 24.6746842 	 180327.8253 	 1.081 	 52.692
0.5933753 	 25.3349737 	 219870.5911 	 1.082 	 52.721
0.5954363 	 26.0214935 	 257730.2953 	 1.084 	 52.701
0.5974456 	 26.7560000 	 291366.2409 	 1.086 	 52.665
0.5994030 	 27.5323559 	 319925.3304 	 1.088 	 52.673
0.6013079 	 28.3675455 	 341381.6546 	 1.086 	 52.683
0.6031611 	 29.2088977 	 356250.0826 	 1.084 	 52.650
0.6049631 	 30.1128679 	 365631.5868 	 1.079 	 52.672
0.6067146 	 31.0191687 	 368890.4824 	 1.073 	 52.626
0.6084188 	 31.9743340 	 372030.0915 	 1.066 	 52.660
0.6100760 	 32.9643348 	 374861.0216 	 1.056 	 52.682
0.6116858 	 33.9769839 	 379749.1965 	 1.047 	 52.672
0.6132511 	 35.0117745 	 386631.3901 	 1.034 	 52.670
0.6147706 	 36.0930399 	 401094.4406 	 1.022 	 52.664
0.6162473 	 37.1925494 	 423155.8985 	 1.010 	 52.670
0.6176829 	 38.3525351 	 454110.9112 	 0.997 	 52.685
0.6190773 	 39.5236943 	 495761.9664 	 0.984 	 52.695
0.6204316 	 40.7553791 	 540115.9570 	 0.972 	 52.685
0.6217460 	 42.0435548 	 586301.0050 	 0.963 	 52.693
0.6230218 	 43.4068292 	 633023.4497 	 0.955 	 52.696
0.6242589 	 44.8244468 	 679852.5773 	 0.950 	 52.704
0.6254580 	 46.2942426 	 723053.7821 	 0.945 	 52.697
0.6266211 	 47.8314020 	 759796.9501 	 0.943 	 52.671
0.6277458 	 49.4738464 	 791918.0621 	 0.942 	 52.706
0.6288359 	 51.1646475 	 817091.7894 	 0.942 	 52.672
0.6298895 	 52.9424580 	 835989.8825 	 0.943 	 52.696
