N=60 	 R=1000000 	 s=1 	 Save [density, Z, rho_t, like/unlike, events per sweep]
0.0002264 	 1.0008582 	 1.1025 	 1.011 	 7.113
0.0220443 	 1.1833023 	 12.0206 	 0.960 	 35.122
0.0428372 	 1.2258936 	 22.6819 	 0.998 	 47.987
0.0625634 	 1.3035914 	 33.1855 	 1.006 	 51.575
0.0812755 	 1.3960992 	 43.5819 	 1.008 	 52.658
0.0990809 	 1.4965991 	 54.0138 	 1.009 	 53.136
0.1160237 	 1.6042336 	 64.4330 	 1.011 	 53.366
0.1321899 	 1.7181909 	 74.7851 	 1.013 	 53.469
0.1476299 	 1.8361161 	 84.7670 	 1.014 	 53.582
0.1623947 	 1.9618280 	 95.1843 	 1.017 	 53.580
0.1765091 	 2.0918096 	 105.6977 	 1.019 	 53.563
0.1900549 	 2.2266068 	 116.5379 	 1.021 	 53.526
0.2030443 	 2.3653121 	 125.3793 	 1.023 	 53.493
0.2155048 	 2.5090873 	 135.5182 	 1.025 	 53.503
0.2274777 	 2.6566662 	 145.8751 	 1.027 	 53.452
0.2389888 	 2.8088196 	 155.3834 	 1.029 	 53.440
0.2500697 	 2.9664738 	 165.9178 	 1.031 	 53.461
0.2607472 	 3.1266321 	 176.4768 	 1.033 	 53.439
0.2710495 	 3.2917072 	 185.8195 	 1.035 	 53.423
0.2809869 	 3.4601584 	 196.3933 	 1.036 	 53.382
0.2905821 	 3.6340493 	 207.2787 	 1.039 	 53.397
0.2998580 	 3.8120189 	 217.9145 	 1.041 	 53.385
0.3088185 	 3.9926551 	 227.0955 	 1.042 	 53.366
0.3174884 	 4.1803894 	 239.1810 	 1.044 	 53.367
0.3258878 	 4.3703168 	 249.0970 	 1.046 	 53.370
0.3340264 	 4.5643399 	 257.1797 	 1.048 	 53.323
0.3419115 	 4.7599374 	 266.2565 	 1.050 	 53.302
0.3495671 	 4.9630623 	 275.0160 	 1.052 	 53.320
0.3569992 	 5.1693312 	 286.0487 	 1.054 	 53.278
0.3642158 	 5.3797523 	 296.3610 	 1.056 	 53.278
0.3712234 	 5.5921506 	 306.2331 	 1.058 	 53.243
0.3780393 	 5.8116367 	 318.1086 	 1.060 	 53.244
0.3846629 	 6.0345178 	 326.3917 	 1.061 	 53.238
0.3911094 	 6.2617819 	 338.3882 	 1.064 	 53.223
0.3973806 	 6.4904776 	 347.3276 	 1.066 	 53.207
0.4034873 	 6.7229129 	 356.2269 	 1.067 	 53.178
0.4094386 	 6.9633867 	 365.0569 	 1.069 	 53.189
0.4152346 	 7.2045652 	 377.6009 	 1.069 	 53.171
0.4208867 	 7.4495575 	 384.3633 	 1.072 	 53.153
0.4263956 	 7.6993500 	 395.7732 	 1.073 	 53.150
0.4317731 	 7.9512179 	 409.4102 	 1.073 	 53.136
0.4370184 	 8.2078257 	 422.0870 	 1.075 	 53.118
0.4421383 	 8.4700504 	 433.4172 	 1.077 	 53.109
0.4471395 	 8.7334777 	 443.0477 	 1.079 	 53.111
0.4520289 	 9.0034002 	 455.6301 	 1.080 	 53.076
0.4568009 	 9.2732016 	 463.1682 	 1.081 	 53.056
0.4614648 	 9.5481292 	 472.4181 	 1.081 	 53.054
0.4660276 	 9.8296347 	 480.8377 	 1.082 	 53.062
0.4704878 	 10.1067682 	 493.5190 	 1.084 	 53.001
0.4748491 	 10.3977525 	 504.4519 	 1.085 	 53.013
0.4791232 	 10.6856898 	 515.0233 	 1.086 	 53.003
0.4833067 	 10.9857585 	 527.3002 	 1.086 	 53.006
0.4874035 	 11.2816721 	 537.0443 	 1.086 	 52.979
0.4914134 	 11.5854242 	 549.6549 	 1.088 	 52.977
0.4953437 	 11.8910229 	 558.4013 	 1.089 	 52.964
0.4991943 	 12.2056413 	 570.1438 	 1.089 	 52.957
0.5029672 	 12.5119883 	 585.5470 	 1.090 	 52.942
0.5066654 	 12.8328562 	 594.1315 	 1.089 	 52.929
0.5102902 	 13.1548562 	 606.9208 	 1.091 	 52.895
0.5138427 	 13.4834008 	 613.3868 	 1.091 	 52.915
0.5173281 	 13.8129967 	 621.8618 	 1.092 	 52.910
0.5207473 	 14.1452700 	 635.1186 	 1.091 	 52.897
0.5241037 	 14.4861686 	 649.0869 	 1.092 	 52.878
0.5273972 	 14.8162607 	 662.9020 	 1.092 	 52.879
0.5306308 	 15.1644379 	 678.9369 	 1.092 	 52.867
0.5338039 	 15.5161745 	 693.1275 	 1.090 	 52.875
0.5369214 	 15.8625861 	 712.4752 	 1.089 	 52.861
0.5399816 	 16.2182875 	 734.9433 	 1.090 	 52.845
0.5429891 	 16.5764127 	 759.3625 	 1.089 	 52.826
0.5459426 	 16.9518728 	 788.7198 	 1.088 	 52.851
0.5488450 	 17.3157711 	 841.8498 	 1.088 	 52.830
0.5516986 	 17.6847024 	 937.0028 	 1.085 	 52.828
0.5545026 	 18.0512353 	 1099.8263 	 1.084 	 52.807
0.5572594 	 18.4191599 	 1423.8381 	 1.082 	 52.800
0.5599709 	 18.7850293 	 2042.9854 	 1.080 	 52.810
0.5626412 	 19.1575980 	 3227.0612 	 1.078 	 52.798
0.5652715 	 19.5345395 	 5613.3693 	 1.075 	 52.805
0.5678611 	 19.9023414 	 10282.7903 	 1.072 	 52.791
0.5704094 	 20.2820649 	 17903.3041 	 1.067 	 52.808
0.5729195 	 20.6650180 	 30937.3429 	 1.064 	 52.818
0.5753901 	 21.0542977 	 51749.9919 	 1.059 	 52.809
0.5778226 	 21.4764350 	 80719.3354 	 1.054 	 52.842
0.5802171 	 21.9025984 	 120348.7963 	 1.050 	 52.856
0.5825697 	 22.3650622 	 169182.8030 	 1.045 	 52.854
0.5848783 	 22.8557413 	 226027.9913 	 1.040 	 52.847
0.5871451 	 23.3932719 	 287585.2465 	 1.036 	 52.848
0.5893642 	 23.9346765 	 355138.8459 	 1.030 	 52.851
0.5915398 	 24.5041858 	 427205.0465 	 1.024 	 52.863
0.5936674 	 25.0879820 	 501572.9921 	 1.018 	 52.834
0.5957502 	 25.6955789 	 576250.2757 	 1.010 	 52.880
0.5977930 	 26.2997404 	 648538.6771 	 1.002 	 52.878
0.5997919 	 26.8938570 	 718935.5290 	 0.993 	 52.864
0.6017532 	 27.4969203 	 782545.2961 	 0.985 	 52.865
0.6036762 	 28.0979568 	 839124.2953 	 0.977 	 52.854
0.6055623 	 28.7261359 	 886789.4766 	 0.969 	 52.837
0.6074101 	 29.3817824 	 925741.0780 	 0.963 	 52.820
0.6092187 	 30.1019315 	 952752.4814 	 0.958 	 52.811
0.6109876 	 30.8892009 	 971467.4710 	 0.956 	 52.805
0.6127138 	 31.7154362 	 982402.0038 	 0.953 	 52.770
0.6143973 	 32.6013300 	 989267.3546 	 0.953 	 52.756
0.6160366 	 33.5531237 	 993593.2478 	 0.953 	 52.749
0.6176331 	 34.5565873 	 996191.9812 	 0.955 	 52.722
0.6191843 	 35.6123054 	 997232.1384 	 0.956 	 52.700
0.6206928 	 36.7108621 	 998488.6328 	 0.958 	 52.721
0.6221583 	 37.8514222 	 998874.3826 	 0.959 	 52.702
0.6235799 	 39.0567536 	 999310.1645 	 0.960 	 52.704
0.6249600 	 40.2745865 	 999694.0311 	 0.961 	 52.654
0.6263004 	 41.5766298 	 999758.0189 	 0.963 	 52.666
0.6275992 	 42.9046097 	 999896.0040 	 0.964 	 52.637
0.6288593 	 44.3040672 	 999910.0033 	 0.966 	 52.638
