N=60 	 R=1000000 	 s=1 	 Save [density, Z, rho_t, like/unlike, events per sweep]
0.0002271 	 1.0008573 	 1.1026 	 0.988 	 7.113
0.0220515 	 1.1833076 	 11.9756 	 0.960 	 35.115
0.0428426 	 1.2258981 	 22.5284 	 0.998 	 47.963
0.0625717 	 1.3034644 	 33.2182 	 1.007 	 51.549
0.0812929 	 1.3960555 	 44.0811 	 1.007 	 52.652
0.0990953 	 1.4967757 	 54.5759 	 1.009 	 53.138
0.1160484 	 1.6043556 	 64.8940 	 1.012 	 53.357
0.1322133 	 1.7184631 	 75.4097 	 1.013 	 53.493
0.1476415 	 1.8361365 	 85.0860 	 1.014 	 53.603
0.1624060 	 1.9623639 	 94.9926 	 1.017 	 53.595
0.1765302 	 2.0916774 	 104.8944 	 1.019 	 53.521
0.1900621 	 2.2265800 	 115.3597 	 1.021 	 53.538
0.2030351 	 2.3650187 	 126.9004 	 1.023 	 53.508
0.2154922 	 2.5092856 	 136.7848 	 1.026 	 53.516
0.2274757 	 2.6570635 	 146.8290 	 1.027 	 53.488
0.2389866 	 2.8093050 	 157.1030 	 1.029 	 53.447
0.2500663 	 2.9658223 	 167.5412 	 1.031 	 53.467
0.2607490 	 3.1260716 	 178.2715 	 1.033 	 53.429
0.2710467 	 3.2919050 	 187.0301 	 1.035 	 53.411
0.2809777 	 3.4611291 	 200.0543 	 1.037 	 53.412
0.2905685 	 3.6344481 	 208.8050 	 1.038 	 53.396
0.2998313 	 3.8117320 	 219.4205 	 1.040 	 53.384
0.3088035 	 3.9938158 	 226.8321 	 1.042 	 53.369
0.3174793 	 4.1779375 	 234.5666 	 1.044 	 53.344
0.3258812 	 4.3695088 	 244.6187 	 1.047 	 53.364
0.3340207 	 4.5625744 	 255.4862 	 1.048 	 53.311
0.3419157 	 4.7611269 	 265.9457 	 1.050 	 53.331
0.3495717 	 4.9637015 	 276.4009 	 1.053 	 53.301
0.3569982 	 5.1696891 	 287.4770 	 1.054 	 53.291
0.3642141 	 5.3787677 	 297.3832 	 1.056 	 53.269
0.3712198 	 5.5939325 	 306.4419 	 1.058 	 53.266
0.3780323 	 5.8115970 	 314.0306 	 1.060 	 53.261
0.3846613 	 6.0328393 	 325.7381 	 1.062 	 53.223
0.3911043 	 6.2588219 	 335.2618 	 1.064 	 53.211
0.3973789 	 6.4895747 	 345.4775 	 1.065 	 53.214
0.4034808 	 6.7223658 	 357.2012 	 1.067 	 53.184
0.4094307 	 6.9621848 	 367.8222 	 1.068 	 53.174
0.4152248 	 7.2035900 	 377.3112 	 1.070 	 53.184
0.4208790 	 7.4481169 	 389.7149 	 1.071 	 53.140
0.4263891 	 7.6973788 	 400.0902 	 1.073 	 53.137
0.4317628 	 7.9499091 	 409.9531 	 1.074 	 53.115
0.4370068 	 8.2051751 	 419.7900 	 1.076 	 53.107
0.4421287 	 8.4679232 	 430.7814 	 1.077 	 53.098
0.4471318 	 8.7332553 	 439.2555 	 1.078 	 53.079
0.4520147 	 9.0008685 	 448.8566 	 1.079 	 53.070
0.4567922 	 9.2755933 	 457.4824 	 1.080 	 53.075
0.4614616 	 9.5507730 	 471.2268 	 1.081 	 53.056
0.4660221 	 9.8299119 	 478.9606 	 1.081 	 53.040
0.4704845 	 10.1105506 	 488.6954 	 1.083 	 53.007
0.4748481 	 10.4012905 	 497.5446 	 1.083 	 53.044
0.4791223 	 10.6892496 	 510.4054 	 1.085 	 53.007
0.4833058 	 10.9823328 	 525.1384 	 1.087 	 52.985
0.4874016 	 11.2783252 	 542.8046 	 1.088 	 52.977
0.4914112 	 11.5891340 	 554.0989 	 1.088 	 52.979
0.4953401 	 11.8927102 	 567.4581 	 1.088 	 52.969
0.4991910 	 12.2042791 	 573.4731 	 1.089 	 52.951
0.5029625 	 12.5159700 	 585.8300 	 1.090 	 52.941
0.5066602 	 12.8390759 	 599.6215 	 1.090 	 52.947
0.5102855 	 13.1521978 	 612.3883 	 1.090 	 52.924
0.5138406 	 13.4794159 	 619.2244 	 1.090 	 52.912
0.5173250 	 13.8104845 	 632.7884 	 1.091 	 52.918
0.5207435 	 14.1361769 	 642.0540 	 1.090 	 52.886
0.5240995 	 14.4798846 	 657.6274 	 1.091 	 52.877
0.5273929 	 14.8202118 	 667.6158 	 1.091 	 52.872
0.5306244 	 15.1648009 	 686.5786 	 1.090 	 52.861
0.5337964 	 15.5090671 	 704.2429 	 1.091 	 52.847
0.5369132 	 15.8690473 	 724.2334 	 1.091 	 52.868
0.5399746 	 16.2245279 	 747.6548 	 1.089 	 52.846
0.5429793 	 16.5851561 	 777.9906 	 1.088 	 52.832
0.5459303 	 16.9452111 	 811.5624 	 1.087 	 52.825
0.5488326 	 17.3157750 	 853.2330 	 1.086 	 52.830
0.5516846 	 17.6851911 	 916.2340 	 1.085 	 52.827
0.5544891 	 18.0553976 	 1005.6199 	 1.084 	 52.805
0.5572436 	 18.4434616 	 1131.4991 	 1.083 	 52.807
0.5599540 	 18.8300397 	 1331.4644 	 1.082 	 52.810
0.5626162 	 19.2162590 	 1631.0484 	 1.080 	 52.788
0.5652323 	 19.6115256 	 2114.5465 	 1.080 	 52.771
0.5678066 	 20.0113257 	 2968.7225 	 1.078 	 52.781
0.5703408 	 20.4195607 	 4364.3200 	 1.078 	 52.780
0.5728305 	 20.8389885 	 6602.8742 	 1.077 	 52.789
0.5752806 	 21.2680823 	 9756.3066 	 1.078 	 52.749
0.5776875 	 21.7253022 	 14594.0866 	 1.077 	 52.756
0.5800492 	 22.1913286 	 21573.9395 	 1.079 	 52.762
0.5823689 	 22.6673782 	 30771.5121 	 1.080 	 52.729
0.5846429 	 23.1967937 	 42429.6702 	 1.083 	 52.723
0.5868734 	 23.7390146 	 56326.8037 	 1.087 	 52.677
0.5890556 	 24.3325985 	 71844.8558 	 1.091 	 52.687
0.5911898 	 24.9493396 	 87367.2679 	 1.095 	 52.640
0.5932741 	 25.6155519 	 103143.8264 	 1.099 	 52.654
0.5953100 	 26.3087204 	 117389.2861 	 1.103 	 52.617
0.5972973 	 27.0343135 	 132035.2279 	 1.107 	 52.610
0.5992336 	 27.7873862 	 144736.0095 	 1.112 	 52.561
0.6011212 	 28.5665891 	 158064.3081 	 1.118 	 52.518
0.6029621 	 29.3823541 	 169186.9596 	 1.123 	 52.540
0.6047543 	 30.2194220 	 181875.2738 	 1.129 	 52.515
0.6065011 	 31.0908706 	 197485.2619 	 1.136 	 52.494
0.6082023 	 31.9715651 	 222714.3768 	 1.142 	 52.471
0.6098583 	 32.8888243 	 258401.5974 	 1.149 	 52.488
0.6114731 	 33.8187463 	 302302.8211 	 1.155 	 52.467
0.6130465 	 34.7873180 	 354678.5489 	 1.161 	 52.500
0.6145764 	 35.7938414 	 414481.1356 	 1.167 	 52.478
0.6160645 	 36.8468557 	 470806.1416 	 1.172 	 52.492
0.6175143 	 37.9473740 	 520347.0496 	 1.176 	 52.493
0.6189229 	 39.0956534 	 561001.7171 	 1.179 	 52.474
0.6202917 	 40.3185839 	 587710.2573 	 1.183 	 52.501
0.6216212 	 41.5778235 	 603882.8180 	 1.183 	 52.495
0.6229115 	 42.9111676 	 605706.4248 	 1.184 	 52.466
0.6241633 	 44.2658128 	 598293.0133 	 1.182 	 52.495
0.6253776 	 45.6630145 	 584134.5721 	 1.180 	 52.477
0.6265567 	 47.1236194 	 564220.0328 	 1.175 	 52.480
0.6277018 	 48.5855107 	 543013.5361 	 1.169 	 52.473
0.6288127 	 50.0949435 	 518700.7943 	 1.160 	 52.454
0.6298921 	 51.6139138 	 496270.0743 	 1.152 	 52.429
