N=60 	 R=1000000 	 s=1 	 Save [density, Z, rho_t, like/unlike, events per sweep]
0.0002265 	 1.0008582 	 1.1028 	 0.990 	 7.113
0.0220577 	 1.1831521 	 12.0206 	 0.960 	 35.145
0.0428547 	 1.2259540 	 22.5161 	 0.999 	 47.964
0.0625844 	 1.3034799 	 32.9928 	 1.006 	 51.533
0.0812882 	 1.3960328 	 43.0858 	 1.008 	 52.629
0.0990872 	 1.4965063 	 53.2663 	 1.010 	 53.134
0.1160311 	 1.6044693 	 64.2780 	 1.011 	 53.367
0.1322029 	 1.7180925 	 74.4695 	 1.013 	 53.457
0.1476417 	 1.8362826 	 85.5221 	 1.014 	 53.592
0.1623999 	 1.9616481 	 95.7053 	 1.016 	 53.559
0.1765187 	 2.0918034 	 105.9508 	 1.019 	 53.546
0.1900549 	 2.2259509 	 116.5020 	 1.021 	 53.515
0.2030168 	 2.3650469 	 128.0243 	 1.023 	 53.500
0.2154755 	 2.5089556 	 138.3655 	 1.025 	 53.501
0.2274422 	 2.6565872 	 148.5406 	 1.027 	 53.468
0.2389526 	 2.8088952 	 160.2298 	 1.029 	 53.469
0.2500379 	 2.9649398 	 171.0440 	 1.031 	 53.431
0.2607188 	 3.1258557 	 181.0775 	 1.033 	 53.431
0.2710109 	 3.2909105 	 191.7469 	 1.036 	 53.428
0.2809448 	 3.4601070 	 202.6875 	 1.036 	 53.397
0.2905474 	 3.6335275 	 214.2538 	 1.038 	 53.393
0.2998209 	 3.8117825 	 224.0174 	 1.040 	 53.395
0.3087952 	 3.9932408 	 233.2606 	 1.043 	 53.352
0.3174694 	 4.1785534 	 243.3850 	 1.044 	 53.365
0.3258693 	 4.3685810 	 254.5738 	 1.046 	 53.327
0.3340081 	 4.5622652 	 265.4147 	 1.049 	 53.316
0.3418983 	 4.7608348 	 275.7571 	 1.050 	 53.315
0.3495529 	 4.9651479 	 282.9389 	 1.052 	 53.323
0.3569869 	 5.1690201 	 291.7488 	 1.054 	 53.276
0.3641993 	 5.3788327 	 302.9127 	 1.056 	 53.285
0.3712067 	 5.5933686 	 313.8760 	 1.058 	 53.264
0.3780210 	 5.8091885 	 325.7884 	 1.061 	 53.234
0.3846427 	 6.0334303 	 336.7642 	 1.062 	 53.233
0.3910905 	 6.2598348 	 346.1569 	 1.064 	 53.217
0.3973673 	 6.4894060 	 357.1948 	 1.066 	 53.211
0.4034732 	 6.7230811 	 367.6096 	 1.067 	 53.194
0.4094200 	 6.9607775 	 381.2655 	 1.069 	 53.176
0.4152123 	 7.2021112 	 391.1576 	 1.070 	 53.162
0.4208604 	 7.4461412 	 403.0876 	 1.072 	 53.142
0.4263743 	 7.6956480 	 414.8015 	 1.073 	 53.132
0.4317484 	 7.9504428 	 425.1888 	 1.074 	 53.115
0.4369918 	 8.2069413 	 435.2194 	 1.075 	 53.100
0.4421195 	 8.4674053 	 447.4919 	 1.077 	 53.091
0.4471187 	 8.7320297 	 460.1007 	 1.079 	 53.084
0.4520073 	 8.9993064 	 468.3702 	 1.078 	 53.065
0.4567781 	 9.2703674 	 480.8628 	 1.080 	 53.062
0.4614470 	 9.5505154 	 488.7565 	 1.081 	 53.073
0.4660142 	 9.8293506 	 497.4057 	 1.082 	 53.038
0.4704820 	 10.1130577 	 506.7689 	 1.084 	 53.015
0.4748430 	 10.3991966 	 518.9090 	 1.085 	 53.025
0.4791141 	 10.6898743 	 533.7896 	 1.086 	 53.016
0.4832957 	 10.9888393 	 542.6355 	 1.086 	 53.010
0.4873880 	 11.2821468 	 550.4129 	 1.087 	 52.962
0.4913984 	 11.5833767 	 557.1270 	 1.088 	 52.982
0.4953253 	 11.8882899 	 569.2652 	 1.089 	 52.961
0.4991755 	 12.2035621 	 579.6040 	 1.089 	 52.959
0.5029474 	 12.5174971 	 588.0113 	 1.090 	 52.938
0.5066407 	 12.8294020 	 599.2102 	 1.089 	 52.942
0.5102650 	 13.1546124 	 611.0957 	 1.092 	 52.957
0.5138200 	 13.4802352 	 621.2912 	 1.091 	 52.914
0.5173058 	 13.8047539 	 632.9927 	 1.091 	 52.906
0.5207252 	 14.1386576 	 642.3671 	 1.091 	 52.891
0.5240825 	 14.4779323 	 659.2070 	 1.092 	 52.893
0.5273777 	 14.8141510 	 668.6482 	 1.092 	 52.875
0.5306094 	 15.1587893 	 679.8585 	 1.092 	 52.869
0.5337847 	 15.5065232 	 694.4789 	 1.092 	 52.882
0.5369033 	 15.8560325 	 713.6799 	 1.090 	 52.841
0.5399662 	 16.2167696 	 735.2385 	 1.089 	 52.844
0.5429744 	 16.5753741 	 759.7368 	 1.089 	 52.843
0.5459304 	 16.9478931 	 791.5357 	 1.088 	 52.844
0.5488323 	 17.3082177 	 834.4927 	 1.087 	 52.827
0.5516841 	 17.6856303 	 886.3665 	 1.088 	 52.807
0.5544863 	 18.0659537 	 965.4704 	 1.086 	 52.821
0.5572397 	 18.4568905 	 1075.0144 	 1.085 	 52.789
0.5599452 	 18.8394943 	 1236.6671 	 1.085 	 52.801
0.5626033 	 19.2352905 	 1446.2788 	 1.083 	 52.800
0.5652140 	 19.6400669 	 1815.1788 	 1.082 	 52.784
0.5677839 	 20.0487162 	 2443.4005 	 1.081 	 52.798
0.5703096 	 20.4558220 	 3524.5541 	 1.079 	 52.769
0.5727923 	 20.8931428 	 5352.1524 	 1.078 	 52.769
0.5752341 	 21.3241094 	 8578.0774 	 1.075 	 52.776
0.5776337 	 21.7643704 	 14206.2579 	 1.072 	 52.751
0.5799915 	 22.2036680 	 22810.6031 	 1.069 	 52.733
0.5823095 	 22.6679025 	 34899.5367 	 1.065 	 52.700
0.5845849 	 23.1532334 	 51234.4630 	 1.062 	 52.715
0.5868194 	 23.6718210 	 70666.4248 	 1.060 	 52.689
0.5890104 	 24.2152066 	 93520.9831 	 1.059 	 52.649
0.5911554 	 24.7969583 	 117813.2951 	 1.058 	 52.635
0.5932545 	 25.4296952 	 142027.5546 	 1.059 	 52.608
0.5953069 	 26.0880465 	 166507.4546 	 1.062 	 52.586
0.5973091 	 26.7974348 	 189106.7774 	 1.067 	 52.568
0.5992630 	 27.5596592 	 212569.1985 	 1.072 	 52.558
0.6011660 	 28.3459440 	 235293.0043 	 1.078 	 52.535
0.6030204 	 29.1912910 	 255982.7966 	 1.085 	 52.558
0.6048251 	 30.0698464 	 279826.7841 	 1.094 	 52.549
0.6065783 	 30.9839597 	 302927.6365 	 1.102 	 52.528
0.6082840 	 31.9273633 	 329240.3354 	 1.110 	 52.512
0.6099425 	 32.9165374 	 357179.9734 	 1.119 	 52.512
0.6115530 	 33.9406388 	 385220.9998 	 1.128 	 52.504
0.6131175 	 34.9987234 	 412887.5215 	 1.135 	 52.503
0.6146377 	 36.0889394 	 438000.3814 	 1.144 	 52.496
0.6161136 	 37.2142116 	 453481.0017 	 1.150 	 52.474
0.6175475 	 38.3390066 	 460394.1225 	 1.153 	 52.436
0.6189407 	 39.4962011 	 462127.3831 	 1.157 	 52.427
0.6202958 	 40.6610300 	 451495.8498 	 1.158 	 52.416
0.6216152 	 41.7917863 	 434318.7474 	 1.157 	 52.385
0.6229017 	 42.9274451 	 420956.4572 	 1.153 	 52.346
0.6241573 	 44.0371307 	 425353.6123 	 1.148 	 52.317
0.6253822 	 45.1656373 	 460507.2898 	 1.143 	 52.299
0.6265794 	 46.2991717 	 526880.7890 	 1.138 	 52.237
0.6277479 	 47.5116556 	 617430.0304 	 1.136 	 52.209
0.6288873 	 48.7901483 	 713518.8598 	 1.134 	 52.175
0.6299969 	 50.2218642 	 798022.7078 	 1.137 	 52.137
