N=60 	 R=1000000 	 s=1 	 Save [density, Z, rho_t, like/unlike, events per sweep]
0.0002254 	 1.0008573 	 1.1027 	 0.998 	 7.113
0.0220528 	 1.1833125 	 11.9780 	 0.959 	 35.110
0.0428487 	 1.2259269 	 22.6080 	 0.997 	 47.962
0.0625732 	 1.3035740 	 33.1423 	 1.006 	 51.562
0.0812845 	 1.3961123 	 43.5902 	 1.008 	 52.633
0.0990917 	 1.4966849 	 54.1619 	 1.010 	 53.142
0.1160459 	 1.6044223 	 64.8329 	 1.012 	 53.351
0.1322234 	 1.7182109 	 75.1781 	 1.013 	 53.480
0.1476610 	 1.8363529 	 85.3143 	 1.015 	 53.577
0.1624269 	 1.9617993 	 95.9352 	 1.016 	 53.578
0.1765487 	 2.0922496 	 107.0846 	 1.018 	 53.568
0.1900915 	 2.2269555 	 117.6486 	 1.021 	 53.523
0.2030699 	 2.3659572 	 128.7624 	 1.023 	 53.509
0.2155290 	 2.5090653 	 139.5426 	 1.024 	 53.493
0.2275039 	 2.6571913 	 150.4614 	 1.027 	 53.511
0.2390168 	 2.8097806 	 160.9011 	 1.029 	 53.481
0.2501015 	 2.9664140 	 171.3489 	 1.031 	 53.464
0.2607695 	 3.1273719 	 181.7496 	 1.033 	 53.448
0.2710717 	 3.2918521 	 192.3069 	 1.034 	 53.421
0.2810082 	 3.4606189 	 204.6224 	 1.037 	 53.397
0.2905997 	 3.6343870 	 214.5111 	 1.038 	 53.397
0.2998723 	 3.8114543 	 224.9772 	 1.040 	 53.379
0.3088346 	 3.9948965 	 234.3635 	 1.043 	 53.376
0.3175111 	 4.1806401 	 244.7333 	 1.044 	 53.365
0.3259075 	 4.3692014 	 253.6937 	 1.047 	 53.337
0.3340484 	 4.5641498 	 264.5425 	 1.049 	 53.340
0.3419393 	 4.7617331 	 275.5245 	 1.051 	 53.309
0.3495931 	 4.9648323 	 285.5220 	 1.053 	 53.315
0.3570223 	 5.1689140 	 293.2060 	 1.054 	 53.277
0.3642289 	 5.3805382 	 305.4611 	 1.056 	 53.295
0.3712382 	 5.5951052 	 315.4932 	 1.058 	 53.263
0.3780535 	 5.8124349 	 328.7273 	 1.060 	 53.246
0.3846772 	 6.0340022 	 337.1672 	 1.062 	 53.235
0.3911200 	 6.2608590 	 348.3539 	 1.064 	 53.232
0.3973891 	 6.4896321 	 359.4821 	 1.065 	 53.209
0.4034947 	 6.7251073 	 367.0695 	 1.067 	 53.192
0.4094436 	 6.9598850 	 376.0793 	 1.069 	 53.175
0.4152440 	 7.2044325 	 385.7924 	 1.070 	 53.179
0.4208947 	 7.4500716 	 398.5837 	 1.072 	 53.145
0.4264056 	 7.6983728 	 405.9446 	 1.073 	 53.133
0.4317857 	 7.9532147 	 417.4993 	 1.075 	 53.129
0.4370297 	 8.2095535 	 427.6727 	 1.076 	 53.117
0.4421483 	 8.4685099 	 436.9078 	 1.077 	 53.104
0.4471517 	 8.7344055 	 449.9552 	 1.078 	 53.102
0.4520343 	 9.0022068 	 461.8902 	 1.080 	 53.090
0.4568083 	 9.2724824 	 474.0674 	 1.082 	 53.057
0.4614786 	 9.5492899 	 484.2731 	 1.082 	 53.035
0.4660412 	 9.8300085 	 495.0003 	 1.083 	 53.035
0.4705053 	 10.1135981 	 505.3655 	 1.083 	 53.016
0.4748710 	 10.4013012 	 513.2031 	 1.085 	 53.023
0.4791448 	 10.6897536 	 524.5958 	 1.085 	 53.000
0.4833277 	 10.9854114 	 531.3423 	 1.086 	 52.982
0.4874196 	 11.2848544 	 541.9025 	 1.088 	 52.987
0.4914298 	 11.5891398 	 553.9670 	 1.088 	 52.989
0.4953552 	 11.8955023 	 566.0275 	 1.089 	 52.976
0.4992006 	 12.2075908 	 576.6695 	 1.089 	 52.965
0.5029744 	 12.5164193 	 588.5775 	 1.090 	 52.931
0.5066690 	 12.8325949 	 597.8267 	 1.090 	 52.919
0.5102951 	 13.1514627 	 612.5287 	 1.090 	 52.927
0.5138479 	 13.4826256 	 620.5939 	 1.090 	 52.919
0.5173340 	 13.8037152 	 635.1356 	 1.091 	 52.899
0.5207542 	 14.1423635 	 645.8585 	 1.091 	 52.889
0.5241095 	 14.4757664 	 665.4201 	 1.091 	 52.878
0.5274028 	 14.8214763 	 675.9525 	 1.091 	 52.889
0.5306335 	 15.1624227 	 690.8750 	 1.091 	 52.886
0.5338054 	 15.5111133 	 706.7609 	 1.091 	 52.857
0.5369215 	 15.8629470 	 730.0546 	 1.091 	 52.837
0.5399801 	 16.2306298 	 751.2368 	 1.091 	 52.873
0.5429839 	 16.5857773 	 777.1925 	 1.089 	 52.849
0.5459362 	 16.9517149 	 808.4596 	 1.089 	 52.832
0.5488377 	 17.3181736 	 846.9765 	 1.088 	 52.839
0.5516875 	 17.6977330 	 893.9900 	 1.089 	 52.833
0.5544871 	 18.0657271 	 954.6298 	 1.087 	 52.803
0.5572392 	 18.4575882 	 1029.5438 	 1.086 	 52.821
0.5599459 	 18.8375346 	 1145.6392 	 1.086 	 52.804
0.5626065 	 19.2449297 	 1302.1732 	 1.086 	 52.800
0.5652216 	 19.6566079 	 1543.8620 	 1.085 	 52.793
0.5677906 	 20.0711511 	 1894.5987 	 1.082 	 52.778
0.5703145 	 20.5029477 	 2379.7574 	 1.082 	 52.763
0.5727906 	 20.9479770 	 3077.4552 	 1.080 	 52.771
0.5752239 	 21.3929495 	 4147.4768 	 1.078 	 52.754
0.5776143 	 21.8510682 	 5751.8111 	 1.075 	 52.772
0.5799593 	 22.3298326 	 7959.6152 	 1.073 	 52.759
0.5822655 	 22.8086916 	 11608.8188 	 1.069 	 52.747
0.5845280 	 23.3065925 	 16587.2990 	 1.067 	 52.734
0.5867488 	 23.8225678 	 23682.1076 	 1.063 	 52.741
0.5889253 	 24.3547864 	 33319.9775 	 1.061 	 52.736
0.5910589 	 24.9275082 	 45793.4455 	 1.061 	 52.727
0.5931495 	 25.5078982 	 61015.9600 	 1.060 	 52.708
0.5951951 	 26.1412487 	 79746.5066 	 1.062 	 52.735
0.5971943 	 26.8165828 	 98848.3119 	 1.064 	 52.707
0.5991499 	 27.5350135 	 119562.7067 	 1.067 	 52.701
0.6010568 	 28.2796186 	 140998.0504 	 1.072 	 52.666
0.6029174 	 29.0816770 	 162510.9931 	 1.074 	 52.671
0.6047296 	 29.9160949 	 181604.6200 	 1.078 	 52.652
0.6064945 	 30.7794736 	 197683.1635 	 1.080 	 52.619
0.6082131 	 31.6861765 	 211089.1852 	 1.083 	 52.609
0.6098853 	 32.6109104 	 219698.4033 	 1.086 	 52.599
0.6115124 	 33.5774123 	 226102.7931 	 1.088 	 52.601
0.6130968 	 34.5266982 	 228739.5462 	 1.089 	 52.608
0.6146399 	 35.4640777 	 229544.8499 	 1.086 	 52.623
0.6161450 	 36.3961105 	 229356.6679 	 1.083 	 52.675
0.6176170 	 37.2619701 	 239531.7452 	 1.075 	 52.745
0.6190573 	 38.0921792 	 268520.5783 	 1.066 	 52.829
0.6204704 	 38.9140661 	 325009.7743 	 1.053 	 52.931
0.6218559 	 39.7962630 	 407363.3555 	 1.040 	 53.044
0.6232128 	 40.7240649 	 502501.2901 	 1.027 	 53.133
0.6245382 	 41.7781378 	 593824.9998 	 1.017 	 53.209
0.6258295 	 42.9281217 	 677077.8104 	 1.007 	 53.261
0.6270885 	 44.2092325 	 748041.6095 	 1.000 	 53.318
0.6283119 	 45.5824675 	 798690.2800 	 0.995 	 53.335
0.6294993 	 47.0177045 	 843149.9305 	 0.991 	 53.342
