N=60 	 R=1000000 	 s=1 	 Save [density, Z, rho_t, like/unlike, events per sweep]
0.0002259 	 1.0008557 	 1.1026 	 0.994 	 7.113
0.0220354 	 1.1833722 	 12.0121 	 0.960 	 35.105
0.0428381 	 1.2259939 	 22.4367 	 0.997 	 47.957
0.0625690 	 1.3034881 	 33.0014 	 1.006 	 51.555
0.0812898 	 1.3961128 	 43.3879 	 1.008 	 52.654
0.0990741 	 1.4966500 	 53.8874 	 1.010 	 53.136
0.1160376 	 1.6041241 	 64.2046 	 1.011 	 53.368
0.1322040 	 1.7181764 	 74.5596 	 1.013 	 53.467
0.1476453 	 1.8362482 	 85.0225 	 1.014 	 53.584
0.1624072 	 1.9618240 	 94.8391 	 1.017 	 53.571
0.1765324 	 2.0920563 	 105.3056 	 1.019 	 53.555
0.1900620 	 2.2264354 	 115.8870 	 1.020 	 53.527
0.2030327 	 2.3654328 	 125.1688 	 1.022 	 53.510
0.2154997 	 2.5089492 	 136.7590 	 1.025 	 53.486
0.2274679 	 2.6563995 	 147.7132 	 1.027 	 53.476
0.2389778 	 2.8092425 	 157.1180 	 1.030 	 53.463
0.2500645 	 2.9660782 	 168.6352 	 1.031 	 53.458
0.2607432 	 3.1258779 	 179.3508 	 1.033 	 53.434
0.2710512 	 3.2914628 	 189.5477 	 1.035 	 53.423
0.2809896 	 3.4605719 	 200.1105 	 1.037 	 53.392
0.2905796 	 3.6342456 	 209.9814 	 1.038 	 53.404
0.2998504 	 3.8122378 	 221.0338 	 1.041 	 53.404
0.3088191 	 3.9938461 	 231.8241 	 1.042 	 53.386
0.3174971 	 4.1804465 	 242.8708 	 1.045 	 53.372
0.3259014 	 4.3702569 	 253.0038 	 1.046 	 53.346
0.3340400 	 4.5639543 	 265.5475 	 1.049 	 53.331
0.3419326 	 4.7625019 	 276.3494 	 1.050 	 53.315
0.3495894 	 4.9625818 	 288.5699 	 1.052 	 53.284
0.3570225 	 5.1690525 	 299.8631 	 1.054 	 53.289
0.3642385 	 5.3797737 	 313.3030 	 1.056 	 53.282
0.3712465 	 5.5938351 	 326.0559 	 1.058 	 53.279
0.3780615 	 5.8128381 	 334.6430 	 1.060 	 53.254
0.3846873 	 6.0338428 	 345.5466 	 1.062 	 53.225
0.3911295 	 6.2588544 	 356.6122 	 1.064 	 53.197
0.3974040 	 6.4908848 	 365.3462 	 1.065 	 53.207
0.4035097 	 6.7230127 	 375.1549 	 1.067 	 53.192
0.4094572 	 6.9609314 	 389.1354 	 1.070 	 53.176
0.4152538 	 7.2032678 	 401.2188 	 1.070 	 53.163
0.4208984 	 7.4495892 	 411.6302 	 1.071 	 53.159
0.4264087 	 7.6966302 	 424.3604 	 1.073 	 53.130
0.4317870 	 7.9515990 	 437.4347 	 1.074 	 53.130
0.4370316 	 8.2094436 	 448.9898 	 1.076 	 53.115
0.4421526 	 8.4712398 	 463.7811 	 1.078 	 53.118
0.4471543 	 8.7345092 	 471.6933 	 1.079 	 53.096
0.4520391 	 9.0028093 	 479.8972 	 1.079 	 53.066
0.4568125 	 9.2771472 	 490.8225 	 1.080 	 53.068
0.4614768 	 9.5518791 	 504.2002 	 1.082 	 53.055
0.4660366 	 9.8343842 	 513.1326 	 1.083 	 53.057
0.4704974 	 10.1105136 	 526.3190 	 1.084 	 53.000
0.4748614 	 10.4010983 	 540.9597 	 1.085 	 53.012
0.4791350 	 10.6910099 	 552.9895 	 1.087 	 52.998
0.4833179 	 10.9867699 	 566.2530 	 1.087 	 52.991
0.4874130 	 11.2872667 	 582.6695 	 1.087 	 52.993
0.4914221 	 11.5908121 	 593.8848 	 1.088 	 52.993
0.4953448 	 11.8912690 	 602.6462 	 1.090 	 52.968
0.4991952 	 12.1975130 	 609.9031 	 1.089 	 52.950
0.5029684 	 12.5138865 	 620.0471 	 1.089 	 52.937
0.5066678 	 12.8372669 	 627.9491 	 1.090 	 52.953
0.5102930 	 13.1543648 	 638.0655 	 1.091 	 52.930
0.5138453 	 13.4790818 	 647.1926 	 1.090 	 52.919
0.5173336 	 13.8077161 	 661.3283 	 1.092 	 52.910
0.5207553 	 14.1372278 	 668.6530 	 1.090 	 52.887
0.5241089 	 14.4755078 	 679.2879 	 1.091 	 52.882
0.5274003 	 14.8198112 	 687.5015 	 1.090 	 52.882
0.5306324 	 15.1643271 	 695.5807 	 1.091 	 52.860
0.5338052 	 15.5181245 	 709.8288 	 1.090 	 52.864
0.5369228 	 15.8691519 	 725.4681 	 1.091 	 52.861
0.5399809 	 16.2218150 	 741.6148 	 1.090 	 52.867
0.5429854 	 16.5845700 	 768.2463 	 1.090 	 52.856
0.5459355 	 16.9438881 	 793.4994 	 1.090 	 52.835
0.5488362 	 17.3176245 	 823.8352 	 1.089 	 52.815
0.5516878 	 17.6958369 	 867.1536 	 1.088 	 52.814
0.5544882 	 18.0726432 	 928.4796 	 1.087 	 52.803
0.5572400 	 18.4615192 	 1013.8739 	 1.086 	 52.810
0.5599458 	 18.8547924 	 1129.7489 	 1.085 	 52.799
0.5626051 	 19.2528623 	 1293.6855 	 1.083 	 52.811
0.5652178 	 19.6563949 	 1516.8752 	 1.081 	 52.784
0.5677850 	 20.0735546 	 1845.1270 	 1.080 	 52.782
0.5703053 	 20.5157948 	 2302.7428 	 1.080 	 52.787
0.5727822 	 20.9615485 	 2952.4201 	 1.080 	 52.795
0.5752120 	 21.4293925 	 3892.7021 	 1.080 	 52.802
0.5775973 	 21.9034546 	 5104.5874 	 1.080 	 52.800
0.5799367 	 22.3973617 	 6854.2370 	 1.082 	 52.792
0.5822316 	 22.8862982 	 9187.0959 	 1.082 	 52.798
0.5844834 	 23.4031183 	 12279.6348 	 1.083 	 52.787
0.5866909 	 23.9360749 	 16537.0470 	 1.084 	 52.827
0.5888550 	 24.4595648 	 22747.6648 	 1.085 	 52.822
0.5909808 	 24.9927982 	 31746.2256 	 1.088 	 52.845
0.5930657 	 25.5490986 	 46007.7467 	 1.091 	 52.876
0.5951125 	 26.1128502 	 65805.6748 	 1.094 	 52.882
0.5971202 	 26.6965151 	 93226.7155 	 1.098 	 52.893
0.5990870 	 27.3050572 	 126514.9499 	 1.103 	 52.862
0.6010124 	 27.9721618 	 162941.6156 	 1.108 	 52.877
0.6028951 	 28.6996873 	 200090.3295 	 1.114 	 52.883
0.6047347 	 29.4837838 	 232113.3254 	 1.119 	 52.850
0.6065262 	 30.3427982 	 260667.6251 	 1.125 	 52.841
0.6082697 	 31.2426965 	 281185.9672 	 1.132 	 52.827
0.6099648 	 32.2019425 	 296308.7234 	 1.138 	 52.779
0.6116099 	 33.2348476 	 303875.5182 	 1.144 	 52.772
0.6132077 	 34.3229603 	 307986.3187 	 1.148 	 52.745
0.6147569 	 35.4276306 	 305809.2172 	 1.154 	 52.694
0.6162604 	 36.6217666 	 301493.7736 	 1.159 	 52.704
0.6177165 	 37.8276559 	 295280.2739 	 1.163 	 52.685
0.6191281 	 39.0851189 	 284565.0341 	 1.166 	 52.652
0.6204963 	 40.3977351 	 271751.0166 	 1.169 	 52.631
0.6218216 	 41.7512621 	 257822.7893 	 1.170 	 52.609
0.6231063 	 43.1080228 	 241187.0042 	 1.171 	 52.580
0.6243522 	 44.5357953 	 224919.7582 	 1.168 	 52.599
0.6255612 	 45.9628567 	 211070.5013 	 1.165 	 52.607
0.6267349 	 47.3723334 	 200085.4733 	 1.159 	 52.581
0.6278740 	 48.8212230 	 194779.7628 	 1.152 	 52.595
0.6289809 	 50.2655084 	 195910.6859 	 1.143 	 52.601
