N=60 	 R=1000000 	 s=1 	 Save [density, Z, rho_t, like/unlike, events per sweep]
0.0002257 	 1.0008517 	 1.1027 	 0.993 	 7.112
0.0220738 	 1.1831780 	 12.0831 	 0.961 	 35.161
0.0428614 	 1.2260131 	 22.6884 	 0.998 	 47.978
0.0625854 	 1.3034956 	 33.1646 	 1.007 	 51.570
0.0812703 	 1.3958892 	 43.4009 	 1.008 	 52.634
0.0990680 	 1.4967118 	 53.9407 	 1.010 	 53.128
0.1160157 	 1.6041819 	 64.3514 	 1.012 	 53.359
0.1321829 	 1.7183235 	 74.4431 	 1.013 	 53.480
0.1476210 	 1.8361861 	 85.0791 	 1.015 	 53.592
0.1623808 	 1.9618155 	 95.7021 	 1.017 	 53.567
0.1764927 	 2.0915604 	 106.7853 	 1.019 	 53.554
0.1900155 	 2.2261814 	 117.5382 	 1.021 	 53.542
0.2029909 	 2.3649421 	 127.9857 	 1.023 	 53.516
0.2154479 	 2.5086921 	 139.1173 	 1.025 	 53.487
0.2274242 	 2.6564730 	 149.6858 	 1.027 	 53.479
0.2389390 	 2.8083121 	 161.0169 	 1.029 	 53.450
0.2500311 	 2.9654533 	 170.3138 	 1.031 	 53.452
0.2607157 	 3.1259006 	 179.9726 	 1.033 	 53.419
0.2710112 	 3.2913008 	 189.8713 	 1.035 	 53.439
0.2809469 	 3.4618877 	 201.0069 	 1.037 	 53.427
0.2905341 	 3.6343495 	 211.2935 	 1.038 	 53.403
0.2998024 	 3.8101953 	 220.4316 	 1.041 	 53.365
0.3087676 	 3.9920817 	 229.3127 	 1.043 	 53.360
0.3174460 	 4.1783856 	 239.8089 	 1.044 	 53.358
0.3258469 	 4.3679948 	 250.8406 	 1.046 	 53.332
0.3339832 	 4.5613342 	 259.7327 	 1.048 	 53.310
0.3418725 	 4.7605824 	 268.2088 	 1.050 	 53.344
0.3495240 	 4.9630482 	 277.5923 	 1.052 	 53.322
0.3569582 	 5.1674862 	 288.8065 	 1.055 	 53.276
0.3641713 	 5.3801142 	 299.4077 	 1.055 	 53.286
0.3711748 	 5.5916982 	 309.9377 	 1.058 	 53.262
0.3779887 	 5.8086518 	 320.3992 	 1.060 	 53.254
0.3846099 	 6.0325990 	 331.4548 	 1.061 	 53.221
0.3910547 	 6.2578669 	 341.5283 	 1.064 	 53.228
0.3973284 	 6.4876181 	 354.6726 	 1.064 	 53.211
0.4034354 	 6.7214249 	 363.5993 	 1.066 	 53.182
0.4093872 	 6.9581702 	 373.5431 	 1.068 	 53.178
0.4151832 	 7.2008859 	 383.6963 	 1.070 	 53.163
0.4208333 	 7.4427697 	 393.8725 	 1.072 	 53.129
0.4263477 	 7.6964387 	 406.4885 	 1.073 	 53.130
0.4317232 	 7.9497387 	 416.8811 	 1.075 	 53.122
0.4369733 	 8.2054835 	 429.5220 	 1.076 	 53.108
0.4420974 	 8.4649148 	 438.4193 	 1.077 	 53.101
0.4470932 	 8.7333299 	 447.7775 	 1.078 	 53.095
0.4519789 	 8.9976881 	 458.3001 	 1.079 	 53.056
0.4567531 	 9.2733207 	 466.3093 	 1.081 	 53.073
0.4614216 	 9.5445298 	 473.8828 	 1.082 	 53.052
0.4659855 	 9.8293930 	 484.0458 	 1.083 	 53.033
0.4704479 	 10.1101093 	 491.5951 	 1.083 	 53.020
0.4748182 	 10.4018372 	 502.5182 	 1.085 	 53.031
0.4790928 	 10.6864175 	 513.1136 	 1.085 	 53.010
0.4832754 	 10.9879323 	 525.8848 	 1.085 	 53.005
0.4873709 	 11.2842713 	 534.1161 	 1.087 	 52.996
0.4913800 	 11.5878592 	 543.3261 	 1.088 	 52.993
0.4953090 	 11.8883301 	 558.8781 	 1.088 	 52.953
0.4991597 	 12.2003861 	 571.1077 	 1.090 	 52.950
0.5029305 	 12.5171729 	 580.8228 	 1.090 	 52.944
0.5066234 	 12.8330081 	 595.1275 	 1.090 	 52.941
0.5102498 	 13.1546164 	 610.5439 	 1.091 	 52.940
0.5138032 	 13.4763533 	 620.6362 	 1.092 	 52.932
0.5172922 	 13.8082709 	 636.9352 	 1.092 	 52.901
0.5207149 	 14.1307630 	 646.7398 	 1.092 	 52.894
0.5240727 	 14.4714248 	 659.2664 	 1.091 	 52.874
0.5273684 	 14.8055569 	 669.1371 	 1.091 	 52.858
0.5306000 	 15.1570108 	 680.6293 	 1.091 	 52.867
0.5337724 	 15.5075915 	 701.2875 	 1.090 	 52.872
0.5368896 	 15.8619353 	 709.9907 	 1.090 	 52.875
0.5399524 	 16.2177759 	 731.8224 	 1.090 	 52.869
0.5429608 	 16.5760320 	 761.5528 	 1.088 	 52.859
0.5459176 	 16.9315351 	 798.3096 	 1.087 	 52.831
0.5488196 	 17.2964193 	 836.7492 	 1.087 	 52.825
0.5516713 	 17.6709194 	 885.6196 	 1.085 	 52.832
0.5544770 	 18.0457438 	 964.9319 	 1.084 	 52.810
0.5572338 	 18.4235106 	 1088.3260 	 1.083 	 52.813
0.5599440 	 18.8145548 	 1251.9005 	 1.081 	 52.801
0.5626082 	 19.2050725 	 1485.1024 	 1.081 	 52.785
0.5652276 	 19.6113299 	 1844.7838 	 1.079 	 52.819
0.5678033 	 20.0234451 	 2351.6981 	 1.077 	 52.797
0.5703327 	 20.4491981 	 3038.8315 	 1.076 	 52.813
0.5728192 	 20.8911986 	 3879.9963 	 1.075 	 52.806
0.5752593 	 21.3454625 	 4919.6198 	 1.073 	 52.790
0.5776536 	 21.8343942 	 6194.0762 	 1.070 	 52.811
0.5800006 	 22.3401744 	 7655.6213 	 1.068 	 52.812
0.5822981 	 22.8692795 	 9354.8776 	 1.067 	 52.781
0.5845519 	 23.4328374 	 11198.4853 	 1.064 	 52.795
0.5867533 	 24.0334947 	 13202.1136 	 1.062 	 52.808
0.5889076 	 24.6246334 	 15476.5416 	 1.057 	 52.768
0.5910154 	 25.2686668 	 17948.9996 	 1.053 	 52.788
0.5930724 	 25.9213961 	 21545.6322 	 1.047 	 52.781
0.5950829 	 26.5821854 	 26493.0804 	 1.041 	 52.786
0.5970494 	 27.2496068 	 32720.0796 	 1.035 	 52.789
0.5989727 	 27.9186860 	 42147.6559 	 1.027 	 52.809
0.6008545 	 28.5966853 	 55406.1517 	 1.018 	 52.787
0.6026961 	 29.2846904 	 73940.4750 	 1.008 	 52.790
0.6044974 	 29.9803239 	 97338.9791 	 0.998 	 52.785
0.6062603 	 30.7102988 	 123799.9365 	 0.988 	 52.793
0.6079849 	 31.4960027 	 152096.8175 	 0.980 	 52.791
0.6096687 	 32.3416386 	 175783.5120 	 0.974 	 52.809
0.6113118 	 33.2277791 	 197788.3977 	 0.968 	 52.788
0.6129122 	 34.1491750 	 215288.3300 	 0.964 	 52.763
0.6144711 	 35.1770967 	 227402.3391 	 0.961 	 52.760
0.6159870 	 36.2355705 	 236661.8432 	 0.960 	 52.739
0.6174606 	 37.3617684 	 242581.5522 	 0.960 	 52.737
0.6188921 	 38.5139488 	 247113.0508 	 0.960 	 52.693
0.6202828 	 39.7154630 	 250414.2501 	 0.961 	 52.706
0.6216327 	 40.9618092 	 255118.1492 	 0.962 	 52.697
0.6229438 	 42.2386211 	 260336.3950 	 0.964 	 52.700
0.6242166 	 43.5516102 	 268275.0794 	 0.966 	 52.678
0.6254520 	 44.8717063 	 279139.1368 	 0.969 	 52.652
0.6266529 	 46.2270447 	 294390.3394 	 0.971 	 52.671
0.6278214 	 47.5855354 	 312655.0036 	 0.975 	 52.634
0.6289580 	 48.9520275 	 333611.6627 	 0.980 	 52.652
