N=60 	 R=1000000 	 s=1 	 Save [density, Z, rho_t, like/unlike, events per sweep]
0.0002269 	 1.0008601 	 1.1026 	 0.994 	 7.113
0.0220695 	 1.1833234 	 11.9707 	 0.961 	 35.148
0.0428708 	 1.2260115 	 22.5704 	 0.998 	 47.977
0.0625977 	 1.3035952 	 32.8868 	 1.006 	 51.574
0.0813108 	 1.3961734 	 43.3596 	 1.008 	 52.638
0.0991043 	 1.4969046 	 54.0273 	 1.009 	 53.150
0.1160674 	 1.6046321 	 63.9469 	 1.011 	 53.367
0.1322482 	 1.7185891 	 74.8774 	 1.013 	 53.462
0.1476902 	 1.8367854 	 85.0001 	 1.014 	 53.584
0.1624446 	 1.9621726 	 94.9934 	 1.017 	 53.577
0.1765805 	 2.0921827 	 105.5679 	 1.019 	 53.550
0.1901141 	 2.2272396 	 116.2450 	 1.021 	 53.547
0.2030920 	 2.3657577 	 125.8614 	 1.023 	 53.513
0.2155464 	 2.5094958 	 136.9395 	 1.025 	 53.492
0.2275128 	 2.6576432 	 147.7792 	 1.027 	 53.492
0.2390172 	 2.8091068 	 158.0300 	 1.029 	 53.463
0.2500964 	 2.9663148 	 168.8138 	 1.031 	 53.458
0.2607756 	 3.1266900 	 178.3737 	 1.033 	 53.426
0.2710738 	 3.2911876 	 189.3208 	 1.035 	 53.389
0.2810020 	 3.4607369 	 200.6496 	 1.038 	 53.400
0.2905855 	 3.6341994 	 211.5065 	 1.039 	 53.383
0.2998650 	 3.8120301 	 223.5451 	 1.040 	 53.389
0.3088362 	 3.9934249 	 233.1183 	 1.042 	 53.371
0.3175154 	 4.1798534 	 243.1186 	 1.045 	 53.354
0.3259129 	 4.3703535 	 253.8810 	 1.046 	 53.342
0.3340507 	 4.5639647 	 264.5475 	 1.048 	 53.333
0.3419392 	 4.7608706 	 276.1506 	 1.051 	 53.320
0.3495899 	 4.9638184 	 287.7613 	 1.051 	 53.305
0.3570179 	 5.1702097 	 297.0314 	 1.053 	 53.291
0.3642330 	 5.3796822 	 305.4883 	 1.056 	 53.276
0.3712372 	 5.5941919 	 315.6464 	 1.058 	 53.260
0.3780472 	 5.8125172 	 326.7792 	 1.060 	 53.254
0.3846692 	 6.0341661 	 336.6821 	 1.062 	 53.236
0.3911169 	 6.2590198 	 348.5415 	 1.063 	 53.200
0.3973842 	 6.4877047 	 358.9182 	 1.065 	 53.186
0.4034903 	 6.7231768 	 369.0815 	 1.066 	 53.185
0.4094442 	 6.9604233 	 380.7159 	 1.068 	 53.161
0.4152374 	 7.2038693 	 390.7006 	 1.070 	 53.173
0.4208927 	 7.4520377 	 402.1112 	 1.071 	 53.151
0.4264024 	 7.7002237 	 413.1162 	 1.073 	 53.146
0.4317793 	 7.9521708 	 423.1606 	 1.074 	 53.121
0.4370321 	 8.2071302 	 436.3423 	 1.075 	 53.103
0.4421535 	 8.4692180 	 449.9878 	 1.077 	 53.075
0.4471517 	 8.7331288 	 461.1819 	 1.079 	 53.089
0.4520356 	 9.0052093 	 470.7624 	 1.080 	 53.090
0.4568079 	 9.2745518 	 479.0975 	 1.081 	 53.052
0.4614745 	 9.5493028 	 491.7232 	 1.083 	 53.040
0.4660379 	 9.8309824 	 504.8681 	 1.084 	 53.036
0.4705014 	 10.1146108 	 518.4672 	 1.084 	 53.022
0.4748662 	 10.3989637 	 531.5278 	 1.084 	 53.011
0.4791385 	 10.6924433 	 538.7207 	 1.084 	 53.008
0.4833223 	 10.9857307 	 549.4017 	 1.086 	 53.011
0.4874178 	 11.2860373 	 561.8224 	 1.087 	 52.999
0.4914283 	 11.5846419 	 575.8274 	 1.088 	 52.961
0.4953546 	 11.8895975 	 585.7763 	 1.088 	 52.939
0.4991985 	 12.2032570 	 596.8562 	 1.090 	 52.937
0.5029703 	 12.5250807 	 611.8776 	 1.090 	 52.946
0.5066673 	 12.8316372 	 616.4096 	 1.088 	 52.933
0.5102907 	 13.1535039 	 629.5221 	 1.090 	 52.916
0.5138462 	 13.4826297 	 641.0858 	 1.090 	 52.912
0.5173353 	 13.8044066 	 654.1355 	 1.091 	 52.878
0.5207549 	 14.1380131 	 671.7116 	 1.091 	 52.890
0.5241112 	 14.4769866 	 684.9306 	 1.091 	 52.894
0.5274044 	 14.8156905 	 706.3267 	 1.091 	 52.897
0.5306392 	 15.1668427 	 721.6585 	 1.091 	 52.871
0.5338125 	 15.5158070 	 740.2250 	 1.091 	 52.869
0.5369258 	 15.8674117 	 761.0354 	 1.090 	 52.859
0.5399859 	 16.2177683 	 781.5834 	 1.091 	 52.822
0.5429906 	 16.5854176 	 806.8001 	 1.089 	 52.831
0.5459416 	 16.9510253 	 828.6999 	 1.089 	 52.824
0.5488409 	 17.3190999 	 867.1304 	 1.088 	 52.833
0.5516917 	 17.6878598 	 923.2968 	 1.087 	 52.804
0.5544946 	 18.0573883 	 983.6347 	 1.086 	 52.815
0.5572483 	 18.4392173 	 1073.0080 	 1.086 	 52.794
0.5599559 	 18.8222932 	 1230.7852 	 1.086 	 52.810
0.5626199 	 19.2057253 	 1468.5742 	 1.086 	 52.797
0.5652418 	 19.5963720 	 1900.8437 	 1.087 	 52.811
0.5678191 	 19.9688277 	 2695.8362 	 1.087 	 52.777
0.5703560 	 20.3606808 	 3954.8822 	 1.089 	 52.801
0.5728542 	 20.7501189 	 6074.4493 	 1.093 	 52.783
0.5753126 	 21.1714832 	 9174.5529 	 1.097 	 52.784
0.5777305 	 21.6089528 	 13375.6728 	 1.104 	 52.788
0.5801046 	 22.0686927 	 18753.7989 	 1.111 	 52.793
0.5824367 	 22.5584707 	 25870.9998 	 1.118 	 52.782
0.5847218 	 23.0799580 	 34296.5937 	 1.128 	 52.796
0.5869637 	 23.6218497 	 44080.2808 	 1.138 	 52.777
0.5891568 	 24.2201925 	 54523.2299 	 1.146 	 52.766
0.5913019 	 24.8477047 	 67064.5142 	 1.152 	 52.762
0.5933974 	 25.5142276 	 82333.0275 	 1.158 	 52.774
0.5954430 	 26.2032495 	 100198.2838 	 1.163 	 52.769
0.5974391 	 26.9048155 	 121367.1142 	 1.167 	 52.757
0.5993857 	 27.6541398 	 143700.3261 	 1.169 	 52.745
0.6012841 	 28.4244051 	 170436.8134 	 1.170 	 52.755
0.6031349 	 29.2338420 	 196325.6012 	 1.170 	 52.751
0.6049369 	 30.0701290 	 222028.0210 	 1.168 	 52.746
0.6066920 	 30.9402014 	 248207.2637 	 1.161 	 52.738
0.6083996 	 31.8605775 	 267627.5445 	 1.154 	 52.765
0.6100616 	 32.8181114 	 283139.3815 	 1.146 	 52.792
0.6116806 	 33.7645353 	 293508.5501 	 1.137 	 52.795
0.6132543 	 34.7600037 	 296749.5805 	 1.126 	 52.792
0.6147869 	 35.7681757 	 294209.4281 	 1.113 	 52.782
0.6162784 	 36.8024121 	 291724.9478 	 1.102 	 52.804
0.6177311 	 37.8477074 	 293468.7483 	 1.087 	 52.788
0.6191462 	 38.9185909 	 304545.2255 	 1.073 	 52.799
0.6205248 	 39.9909754 	 332079.8083 	 1.060 	 52.752
0.6218677 	 41.1047308 	 378026.7665 	 1.046 	 52.753
0.6231759 	 42.2824963 	 439527.0293 	 1.035 	 52.767
0.6244506 	 43.4646737 	 518085.7403 	 1.023 	 52.753
0.6256904 	 44.7217389 	 595810.0620 	 1.014 	 52.726
0.6268973 	 46.0500380 	 671437.7776 	 1.007 	 52.719
0.6280704 	 47.4574866 	 739131.0508 	 1.002 	 52.709
0.6292092 	 48.9686190 	 799240.2091 	 0.996 	 52.709
