N=60 	 R=1000000 	 s=1 	 Save [density, Z, rho_t, like/unlike, events per sweep]
0.0002253 	 1.0008545 	 1.1026 	 0.996 	 7.113
0.0220567 	 1.1833374 	 11.9886 	 0.960 	 35.128
0.0428553 	 1.2259838 	 22.4549 	 0.998 	 47.953
0.0625747 	 1.3034381 	 32.8237 	 1.006 	 51.535
0.0812893 	 1.3960138 	 43.3861 	 1.008 	 52.657
0.0990995 	 1.4968328 	 53.8237 	 1.010 	 53.161
0.1160567 	 1.6042329 	 64.1018 	 1.011 	 53.349
0.1322293 	 1.7187407 	 74.3929 	 1.013 	 53.475
0.1476785 	 1.8364100 	 84.7516 	 1.014 	 53.583
0.1624308 	 1.9618217 	 94.7289 	 1.017 	 53.535
0.1765609 	 2.0921876 	 105.8028 	 1.019 	 53.557
0.1900985 	 2.2270428 	 115.8874 	 1.021 	 53.550
0.2030657 	 2.3656023 	 125.9762 	 1.023 	 53.511
0.2155232 	 2.5092046 	 136.3092 	 1.025 	 53.492
0.2274924 	 2.6572730 	 146.3387 	 1.028 	 53.483
0.2390093 	 2.8092580 	 155.2081 	 1.029 	 53.444
0.2500941 	 2.9668792 	 164.6379 	 1.031 	 53.452
0.2607698 	 3.1273931 	 174.9091 	 1.033 	 53.461
0.2710691 	 3.2922261 	 184.3097 	 1.035 	 53.413
0.2810045 	 3.4620242 	 194.8507 	 1.037 	 53.429
0.2906041 	 3.6349193 	 205.2115 	 1.039 	 53.383
0.2998662 	 3.8116639 	 215.2067 	 1.040 	 53.382
0.3088349 	 3.9945275 	 224.9312 	 1.043 	 53.383
0.3175086 	 4.1800200 	 234.6014 	 1.044 	 53.361
0.3259083 	 4.3712577 	 247.0531 	 1.046 	 53.356
0.3340518 	 4.5635344 	 256.7524 	 1.048 	 53.328
0.3419344 	 4.7630724 	 266.3661 	 1.050 	 53.328
0.3495892 	 4.9636833 	 277.6050 	 1.052 	 53.304
0.3570221 	 5.1687919 	 289.0302 	 1.055 	 53.281
0.3642379 	 5.3796157 	 300.0560 	 1.056 	 53.271
0.3712467 	 5.5952970 	 310.4849 	 1.057 	 53.274
0.3780610 	 5.8120463 	 321.2417 	 1.059 	 53.254
0.3846811 	 6.0331541 	 331.0210 	 1.062 	 53.228
0.3911268 	 6.2588824 	 339.8903 	 1.064 	 53.217
0.3973944 	 6.4894851 	 350.1587 	 1.065 	 53.201
0.4035010 	 6.7246163 	 359.5669 	 1.067 	 53.212
0.4094477 	 6.9606331 	 368.8943 	 1.068 	 53.158
0.4152438 	 7.2035963 	 379.8933 	 1.069 	 53.179
0.4208979 	 7.4488546 	 389.8157 	 1.071 	 53.152
0.4264073 	 7.7007471 	 401.3094 	 1.073 	 53.146
0.4317796 	 7.9504973 	 412.9082 	 1.075 	 53.110
0.4370258 	 8.2106628 	 427.1065 	 1.076 	 53.119
0.4421459 	 8.4705968 	 438.0876 	 1.077 	 53.102
0.4471475 	 8.7335736 	 448.2296 	 1.078 	 53.096
0.4520329 	 9.0038943 	 458.3576 	 1.079 	 53.080
0.4568111 	 9.2744896 	 468.4621 	 1.080 	 53.063
0.4614769 	 9.5542038 	 478.6110 	 1.082 	 53.068
0.4660379 	 9.8299089 	 488.1599 	 1.083 	 53.043
0.4705018 	 10.1114511 	 497.4710 	 1.084 	 53.014
0.4748669 	 10.4011060 	 509.0102 	 1.084 	 53.021
0.4791369 	 10.6948943 	 519.3014 	 1.086 	 53.012
0.4833195 	 10.9863184 	 533.2702 	 1.087 	 52.985
0.4874121 	 11.2808130 	 542.7517 	 1.087 	 52.991
0.4914207 	 11.5815329 	 555.4996 	 1.087 	 52.968
0.4953503 	 11.8932982 	 565.8680 	 1.088 	 52.970
0.4991990 	 12.1992387 	 576.5737 	 1.091 	 52.956
0.5029689 	 12.5174383 	 591.0895 	 1.090 	 52.963
0.5066637 	 12.8328992 	 604.2388 	 1.091 	 52.939
0.5102894 	 13.1501180 	 618.0056 	 1.090 	 52.894
0.5138424 	 13.4813523 	 630.7350 	 1.090 	 52.915
0.5173249 	 13.8151852 	 636.7416 	 1.092 	 52.912
0.5207450 	 14.1418738 	 640.8602 	 1.091 	 52.906
0.5241011 	 14.4733162 	 649.0996 	 1.090 	 52.884
0.5273936 	 14.8188594 	 669.0028 	 1.091 	 52.879
0.5306279 	 15.1621242 	 683.0351 	 1.091 	 52.879
0.5337997 	 15.5082363 	 704.7279 	 1.091 	 52.855
0.5369165 	 15.8595069 	 720.9817 	 1.091 	 52.852
0.5399792 	 16.2146918 	 741.3489 	 1.090 	 52.819
0.5429856 	 16.5751688 	 764.5709 	 1.090 	 52.826
0.5459399 	 16.9414318 	 797.7220 	 1.090 	 52.843
0.5488420 	 17.3109967 	 841.1445 	 1.088 	 52.819
0.5516954 	 17.6842575 	 898.5515 	 1.087 	 52.833
0.5544993 	 18.0675914 	 964.2431 	 1.087 	 52.805
0.5572530 	 18.4494308 	 1062.4657 	 1.085 	 52.805
0.5599612 	 18.8374362 	 1196.8760 	 1.084 	 52.816
0.5626209 	 19.2383664 	 1382.6713 	 1.084 	 52.798
0.5652358 	 19.6416930 	 1711.7839 	 1.083 	 52.800
0.5678078 	 20.0592322 	 2236.0746 	 1.081 	 52.797
0.5703326 	 20.4733680 	 3146.3467 	 1.079 	 52.788
0.5728138 	 20.8939371 	 4641.0058 	 1.075 	 52.788
0.5752550 	 21.3270887 	 7293.8265 	 1.069 	 52.769
0.5776537 	 21.7565269 	 12050.6743 	 1.063 	 52.756
0.5800132 	 22.1990437 	 20014.4572 	 1.054 	 52.749
0.5823309 	 22.6422633 	 32926.6940 	 1.042 	 52.723
0.5846104 	 23.1233919 	 51386.6380 	 1.030 	 52.759
0.5868490 	 23.6160681 	 74770.9325 	 1.016 	 52.737
0.5890463 	 24.1505700 	 104456.6443 	 1.001 	 52.734
0.5911987 	 24.7163805 	 136299.5958 	 0.988 	 52.738
0.5933062 	 25.3200025 	 171326.3581 	 0.973 	 52.722
0.5953666 	 25.9789468 	 208465.5415 	 0.961 	 52.729
0.5973797 	 26.7004861 	 243889.1231 	 0.948 	 52.782
0.5993418 	 27.4385402 	 278152.0337 	 0.938 	 52.768
0.6012547 	 28.2433476 	 310376.7018 	 0.929 	 52.771
0.6031165 	 29.0696079 	 342370.7249 	 0.919 	 52.776
0.6049272 	 29.9555089 	 371866.0823 	 0.911 	 52.789
0.6066878 	 30.8740662 	 399598.4259 	 0.903 	 52.791
0.6083992 	 31.8450086 	 427326.3130 	 0.895 	 52.804
0.6100615 	 32.8509017 	 456057.3924 	 0.886 	 52.816
0.6116752 	 33.9016206 	 485585.4335 	 0.877 	 52.848
0.6132410 	 34.9925162 	 511818.6116 	 0.869 	 52.870
0.6147607 	 36.1095934 	 537681.7763 	 0.861 	 52.910
0.6162355 	 37.2548161 	 562236.5154 	 0.852 	 52.906
0.6176671 	 38.4302840 	 577946.4291 	 0.845 	 52.950
0.6190578 	 39.6282843 	 588375.2868 	 0.840 	 52.959
0.6204092 	 40.8326430 	 587234.1803 	 0.835 	 52.966
0.6217225 	 42.0237895 	 571624.7271 	 0.835 	 53.020
0.6230027 	 43.1797710 	 534309.0527 	 0.839 	 53.017
0.6242514 	 44.2340658 	 486673.4618 	 0.850 	 52.989
0.6254747 	 45.1609658 	 446543.9189 	 0.869 	 52.979
0.6266749 	 45.9668305 	 449260.0271 	 0.894 	 52.955
0.6278567 	 46.7324971 	 517099.0865 	 0.925 	 52.949
0.6290213 	 47.5587179 	 633923.7801 	 0.956 	 52.926
