N=60 	 R=1000000 	 s=1 	 Save [density, Z, rho_t, like/unlike, events per sweep]
0.0002255 	 1.0008590 	 1.1026 	 0.989 	 7.113
0.0220466 	 1.1831614 	 12.0302 	 0.961 	 35.126
0.0428336 	 1.2258550 	 22.6170 	 0.998 	 47.950
0.0625451 	 1.3033078 	 33.0039 	 1.006 	 51.559
0.0812549 	 1.3959550 	 43.6419 	 1.008 	 52.645
0.0990523 	 1.4965720 	 54.0823 	 1.010 	 53.163
0.1160058 	 1.6040379 	 65.1252 	 1.011 	 53.352
0.1321756 	 1.7180338 	 75.5974 	 1.014 	 53.482
0.1476243 	 1.8360823 	 86.0917 	 1.015 	 53.587
0.1623869 	 1.9617161 	 97.1036 	 1.017 	 53.575
0.1765250 	 2.0917699 	 108.3761 	 1.019 	 53.548
0.1900625 	 2.2263821 	 118.0419 	 1.021 	 53.519
0.2030418 	 2.3648901 	 129.0994 	 1.023 	 53.494
0.2155001 	 2.5090228 	 139.2126 	 1.026 	 53.486
0.2274749 	 2.6573558 	 148.7451 	 1.027 	 53.483
0.2389845 	 2.8088767 	 160.0001 	 1.029 	 53.454
0.2500651 	 2.9662783 	 171.8212 	 1.032 	 53.462
0.2607503 	 3.1269946 	 181.5190 	 1.033 	 53.438
0.2710483 	 3.2917007 	 192.9057 	 1.035 	 53.426
0.2809730 	 3.4609875 	 204.3693 	 1.037 	 53.407
0.2905688 	 3.6338207 	 214.3197 	 1.038 	 53.384
0.2998422 	 3.8122399 	 224.8086 	 1.041 	 53.382
0.3088001 	 3.9933744 	 235.1349 	 1.042 	 53.359
0.3174773 	 4.1788369 	 244.3287 	 1.044 	 53.350
0.3258771 	 4.3690311 	 253.5701 	 1.046 	 53.358
0.3340158 	 4.5624732 	 263.4064 	 1.048 	 53.320
0.3419056 	 4.7605940 	 275.6961 	 1.050 	 53.315
0.3495586 	 4.9635493 	 285.0261 	 1.052 	 53.298
0.3569907 	 5.1684284 	 295.1705 	 1.054 	 53.266
0.3642039 	 5.3786330 	 305.4326 	 1.056 	 53.283
0.3712120 	 5.5931716 	 313.4603 	 1.058 	 53.258
0.3780204 	 5.8099019 	 324.9336 	 1.061 	 53.230
0.3846419 	 6.0342244 	 332.6330 	 1.061 	 53.258
0.3910869 	 6.2617852 	 343.6371 	 1.064 	 53.232
0.3973577 	 6.4873591 	 351.5365 	 1.066 	 53.194
0.4034637 	 6.7212559 	 360.6160 	 1.067 	 53.198
0.4094108 	 6.9606750 	 368.8641 	 1.068 	 53.193
0.4152134 	 7.2003406 	 382.2938 	 1.070 	 53.168
0.4208626 	 7.4491495 	 391.4637 	 1.071 	 53.164
0.4263727 	 7.6977808 	 403.9549 	 1.073 	 53.146
0.4317467 	 7.9499805 	 412.8675 	 1.074 	 53.097
0.4369939 	 8.2075226 	 421.6721 	 1.075 	 53.116
0.4421135 	 8.4688694 	 435.0485 	 1.077 	 53.105
0.4471123 	 8.7353330 	 444.6385 	 1.078 	 53.103
0.4519968 	 8.9993778 	 453.9348 	 1.078 	 53.076
0.4567705 	 9.2739889 	 459.5222 	 1.080 	 53.090
0.4614363 	 9.5485812 	 467.7875 	 1.082 	 53.058
0.4660010 	 9.8266720 	 478.8491 	 1.081 	 53.041
0.4704664 	 10.1108125 	 489.6566 	 1.083 	 53.019
0.4748341 	 10.3976611 	 504.4131 	 1.083 	 53.006
0.4791076 	 10.6895284 	 516.5926 	 1.084 	 53.008
0.4832867 	 10.9831019 	 528.3550 	 1.086 	 53.020
0.4873835 	 11.2814046 	 539.6008 	 1.086 	 52.996
0.4913933 	 11.5864257 	 548.7411 	 1.087 	 52.982
0.4953193 	 11.8879818 	 558.8140 	 1.088 	 52.951
0.4991668 	 12.2034044 	 572.4052 	 1.089 	 52.965
0.5029371 	 12.5130194 	 583.9117 	 1.089 	 52.956
0.5066330 	 12.8311794 	 591.0967 	 1.089 	 52.944
0.5102580 	 13.1505644 	 606.4891 	 1.091 	 52.923
0.5138127 	 13.4753026 	 618.2943 	 1.092 	 52.911
0.5172981 	 13.8069093 	 631.8161 	 1.091 	 52.925
0.5207171 	 14.1356283 	 644.2214 	 1.092 	 52.879
0.5240690 	 14.4763482 	 654.8576 	 1.091 	 52.905
0.5273618 	 14.8192602 	 666.6512 	 1.091 	 52.879
0.5305958 	 15.1594516 	 680.9430 	 1.091 	 52.874
0.5337696 	 15.5082701 	 698.8748 	 1.092 	 52.864
0.5368856 	 15.8686725 	 714.4729 	 1.092 	 52.876
0.5399430 	 16.2177406 	 736.7769 	 1.091 	 52.848
0.5429500 	 16.5733930 	 760.3081 	 1.091 	 52.835
0.5459026 	 16.9394237 	 786.6547 	 1.091 	 52.831
0.5488047 	 17.3083971 	 824.3288 	 1.089 	 52.823
0.5516559 	 17.6842091 	 882.2362 	 1.088 	 52.833
0.5544573 	 18.0597195 	 960.4343 	 1.088 	 52.830
0.5572120 	 18.4408497 	 1063.7577 	 1.088 	 52.804
0.5599208 	 18.8264840 	 1239.4522 	 1.088 	 52.786
0.5625831 	 19.2208792 	 1476.6798 	 1.087 	 52.790
0.5651990 	 19.6174418 	 1846.0073 	 1.087 	 52.778
0.5677712 	 20.0295474 	 2368.4123 	 1.086 	 52.792
0.5702995 	 20.4371037 	 3163.7649 	 1.085 	 52.758
0.5727860 	 20.8708036 	 4277.9504 	 1.085 	 52.738
0.5752280 	 21.3130102 	 5922.6178 	 1.084 	 52.747
0.5776260 	 21.7580226 	 8226.5326 	 1.083 	 52.729
0.5799825 	 22.2298683 	 11433.7010 	 1.083 	 52.722
0.5822942 	 22.7261088 	 15877.7713 	 1.084 	 52.705
0.5845643 	 23.2347423 	 21606.1360 	 1.082 	 52.692
0.5867909 	 23.7681589 	 29257.8442 	 1.081 	 52.682
0.5889729 	 24.3131269 	 39299.8287 	 1.081 	 52.660
0.5911091 	 24.9068396 	 50829.9762 	 1.078 	 52.652
0.5932014 	 25.5202361 	 64257.6808 	 1.077 	 52.622
0.5952464 	 26.1742035 	 78997.5481 	 1.075 	 52.617
0.5972422 	 26.8759744 	 93947.7537 	 1.073 	 52.599
0.5991912 	 27.6106548 	 110087.6456 	 1.073 	 52.561
0.6010919 	 28.3948907 	 125496.8793 	 1.072 	 52.546
0.6029428 	 29.2123825 	 140262.8956 	 1.073 	 52.526
0.6047454 	 30.0800928 	 152698.4526 	 1.075 	 52.506
0.6064983 	 30.9960803 	 164319.4170 	 1.076 	 52.484
0.6082037 	 31.9425895 	 173940.8757 	 1.078 	 52.442
0.6098607 	 32.9267643 	 181612.2395 	 1.081 	 52.417
0.6114685 	 33.9721156 	 188940.9589 	 1.084 	 52.403
0.6130312 	 35.0505665 	 195994.9035 	 1.086 	 52.365
0.6145480 	 36.1749075 	 199486.6289 	 1.090 	 52.340
0.6160188 	 37.3554345 	 202253.5393 	 1.091 	 52.329
0.6174461 	 38.5611822 	 202379.8783 	 1.093 	 52.305
0.6188301 	 39.8372728 	 201226.4665 	 1.096 	 52.277
0.6201717 	 41.1415216 	 199400.7797 	 1.097 	 52.258
0.6214719 	 42.4891440 	 195955.1670 	 1.098 	 52.221
0.6227339 	 43.8853405 	 192560.4925 	 1.098 	 52.226
0.6239559 	 45.3248672 	 187943.4801 	 1.098 	 52.216
0.6251414 	 46.8308604 	 183747.7711 	 1.100 	 52.213
0.6262888 	 48.3560094 	 177727.4752 	 1.099 	 52.197
0.6274014 	 49.9433217 	 173789.7489 	 1.098 	 52.175
0.6284815 	 51.5396705 	 168716.6145 	 1.096 	 52.138
0.6295281 	 53.2238950 	 164651.0529 	 1.093 	 52.172
