N=60 	 R=1000000 	 s=1 	 Save [density, Z, rho_t, like/unlike, events per sweep]
0.0002268 	 1.0008584 	 1.1026 	 0.990 	 7.113
0.0220548 	 1.1832009 	 12.0239 	 0.960 	 35.137
0.0428395 	 1.2258886 	 22.5132 	 0.998 	 47.955
0.0625679 	 1.3033531 	 33.0345 	 1.007 	 51.538
0.0812786 	 1.3960045 	 43.1715 	 1.008 	 52.661
0.0990829 	 1.4965975 	 53.7534 	 1.009 	 53.124
0.1160345 	 1.6041923 	 63.4294 	 1.011 	 53.339
0.1322113 	 1.7183196 	 73.9368 	 1.013 	 53.461
0.1476587 	 1.8363261 	 84.7455 	 1.015 	 53.576
0.1624236 	 1.9619792 	 95.4098 	 1.017 	 53.577
0.1765421 	 2.0919837 	 106.2155 	 1.019 	 53.556
0.1900702 	 2.2265821 	 116.6825 	 1.022 	 53.518
0.2030540 	 2.3661607 	 127.2361 	 1.023 	 53.514
0.2155182 	 2.5093150 	 136.9127 	 1.025 	 53.498
0.2274834 	 2.6570518 	 146.5796 	 1.028 	 53.478
0.2389906 	 2.8095884 	 157.6357 	 1.029 	 53.465
0.2500699 	 2.9656590 	 167.9306 	 1.031 	 53.450
0.2607421 	 3.1263189 	 179.3967 	 1.033 	 53.423
0.2710329 	 3.2915362 	 189.2616 	 1.034 	 53.435
0.2809710 	 3.4612295 	 201.6512 	 1.037 	 53.419
0.2905583 	 3.6343242 	 210.6501 	 1.039 	 53.382
0.2998321 	 3.8117289 	 219.6290 	 1.040 	 53.366
0.3087957 	 3.9933341 	 230.2115 	 1.043 	 53.359
0.3174721 	 4.1786565 	 240.7605 	 1.044 	 53.334
0.3258753 	 4.3709103 	 250.2027 	 1.046 	 53.368
0.3340164 	 4.5632748 	 259.6279 	 1.048 	 53.322
0.3419061 	 4.7619067 	 269.7632 	 1.050 	 53.316
0.3495634 	 4.9635334 	 278.7792 	 1.053 	 53.310
0.3569970 	 5.1690279 	 287.0489 	 1.054 	 53.273
0.3642091 	 5.3789824 	 299.6304 	 1.057 	 53.268
0.3712157 	 5.5925617 	 310.1817 	 1.058 	 53.255
0.3780273 	 5.8114258 	 320.9569 	 1.060 	 53.265
0.3846526 	 6.0337675 	 331.4242 	 1.062 	 53.236
0.3910996 	 6.2587486 	 340.5184 	 1.063 	 53.220
0.3973750 	 6.4896203 	 349.1675 	 1.065 	 53.204
0.4034798 	 6.7228229 	 359.4355 	 1.067 	 53.196
0.4094305 	 6.9614980 	 371.8217 	 1.068 	 53.183
0.4152253 	 7.2029600 	 380.8502 	 1.069 	 53.177
0.4208770 	 7.4506784 	 390.3597 	 1.071 	 53.156
0.4263870 	 7.6969515 	 399.5592 	 1.073 	 53.124
0.4317620 	 7.9502166 	 410.5832 	 1.074 	 53.131
0.4370115 	 8.2067315 	 422.4531 	 1.076 	 53.132
0.4421307 	 8.4710926 	 432.2518 	 1.077 	 53.113
0.4471325 	 8.7328979 	 442.2104 	 1.078 	 53.085
0.4520164 	 9.0000463 	 457.5846 	 1.080 	 53.080
0.4567933 	 9.2748966 	 467.1118 	 1.080 	 53.051
0.4614615 	 9.5515659 	 478.1146 	 1.082 	 53.063
0.4660227 	 9.8296404 	 489.3633 	 1.082 	 53.063
0.4704828 	 10.1093886 	 502.1095 	 1.083 	 53.020
0.4748498 	 10.4021678 	 518.5149 	 1.084 	 53.028
0.4791199 	 10.6897487 	 529.3967 	 1.085 	 53.002
0.4833048 	 10.9813261 	 542.2322 	 1.086 	 52.998
0.4873989 	 11.2818211 	 550.5154 	 1.086 	 52.985
0.4914086 	 11.5861381 	 560.8110 	 1.088 	 52.976
0.4953385 	 11.8924449 	 570.9830 	 1.089 	 52.963
0.4991897 	 12.2014442 	 582.8158 	 1.089 	 52.970
0.5029622 	 12.5182745 	 589.4877 	 1.089 	 52.949
0.5066559 	 12.8363037 	 602.0663 	 1.089 	 52.947
0.5102781 	 13.1578466 	 615.6784 	 1.090 	 52.928
0.5138329 	 13.4805976 	 625.9193 	 1.090 	 52.904
0.5173210 	 13.8106050 	 638.3869 	 1.090 	 52.921
0.5207414 	 14.1400685 	 650.0206 	 1.090 	 52.882
0.5240982 	 14.4727229 	 657.2068 	 1.090 	 52.902
0.5273908 	 14.8193574 	 675.8918 	 1.090 	 52.883
0.5306255 	 15.1620207 	 691.8324 	 1.090 	 52.883
0.5337977 	 15.5165201 	 708.3016 	 1.091 	 52.890
0.5369153 	 15.8626399 	 725.9437 	 1.090 	 52.867
0.5399770 	 16.2223624 	 748.3083 	 1.089 	 52.875
0.5429834 	 16.5850035 	 766.0678 	 1.089 	 52.845
0.5459346 	 16.9535955 	 802.0113 	 1.089 	 52.827
0.5488336 	 17.3236167 	 838.3785 	 1.088 	 52.841
0.5516828 	 17.7048145 	 887.0331 	 1.087 	 52.828
0.5544810 	 18.0827224 	 956.3537 	 1.085 	 52.828
0.5572317 	 18.4640906 	 1060.6927 	 1.085 	 52.813
0.5599350 	 18.8538255 	 1206.7186 	 1.084 	 52.797
0.5625915 	 19.2634066 	 1396.5224 	 1.083 	 52.803
0.5652018 	 19.6667895 	 1679.6267 	 1.082 	 52.811
0.5677682 	 20.0959987 	 2073.5446 	 1.083 	 52.806
0.5702879 	 20.5263870 	 2662.2030 	 1.083 	 52.794
0.5727607 	 20.9759433 	 3492.6692 	 1.084 	 52.791
0.5751879 	 21.4329057 	 4597.3634 	 1.084 	 52.769
0.5775733 	 21.9028647 	 6210.3251 	 1.085 	 52.777
0.5799128 	 22.3748206 	 8392.3048 	 1.084 	 52.797
0.5822099 	 22.8797022 	 11567.0913 	 1.085 	 52.798
0.5844641 	 23.3872821 	 16352.9755 	 1.085 	 52.783
0.5866755 	 23.8897214 	 25028.1398 	 1.085 	 52.786
0.5888462 	 24.3949954 	 38904.6341 	 1.084 	 52.806
0.5909788 	 24.9092010 	 62267.5074 	 1.085 	 52.789
0.5930741 	 25.4437767 	 98280.0732 	 1.084 	 52.793
0.5951286 	 25.9810346 	 148003.3744 	 1.088 	 52.771
0.5971458 	 26.5655027 	 211896.7562 	 1.091 	 52.781
0.5991225 	 27.1964395 	 284623.7678 	 1.096 	 52.755
0.6010558 	 27.8823232 	 358031.3319 	 1.102 	 52.738
0.6029435 	 28.6548422 	 430704.9776 	 1.109 	 52.738
0.6047842 	 29.4597020 	 494271.6785 	 1.115 	 52.708
0.6065770 	 30.3475078 	 545617.4886 	 1.121 	 52.709
0.6083207 	 31.2694749 	 588193.1411 	 1.128 	 52.669
0.6100134 	 32.2591957 	 621027.5813 	 1.134 	 52.642
0.6116553 	 33.2931090 	 647177.5604 	 1.139 	 52.628
0.6132508 	 34.3768908 	 665508.3654 	 1.144 	 52.630
0.6147974 	 35.5016160 	 676136.1360 	 1.147 	 52.612
0.6162964 	 36.6997878 	 678405.1813 	 1.150 	 52.596
0.6177478 	 37.9029645 	 678348.1029 	 1.152 	 52.578
0.6191579 	 39.1629612 	 670797.0785 	 1.152 	 52.561
0.6205233 	 40.4753527 	 655932.0531 	 1.151 	 52.564
0.6218471 	 41.7933898 	 635909.2642 	 1.148 	 52.556
0.6231315 	 43.1566747 	 603655.3712 	 1.142 	 52.550
0.6243762 	 44.5518514 	 565623.2354 	 1.134 	 52.560
0.6255841 	 45.9280550 	 524237.0081 	 1.123 	 52.551
0.6267564 	 47.3012392 	 482611.4994 	 1.107 	 52.573
0.6278981 	 48.6471416 	 444972.4078 	 1.087 	 52.581
0.6290090 	 49.9980664 	 424404.9743 	 1.064 	 52.615
