N=60 	 R=1000000 	 s=1 	 Save [density, Z, rho_t, like/unlike, events per sweep]
0.0002275 	 1.0008537 	 1.1028 	 0.998 	 7.113
0.0220739 	 1.1833284 	 12.0935 	 0.960 	 35.136
0.0428826 	 1.2260960 	 22.6662 	 0.999 	 47.972
0.0626121 	 1.3036397 	 33.0507 	 1.006 	 51.548
0.0813256 	 1.3962884 	 43.4056 	 1.008 	 52.634
0.0991254 	 1.4971932 	 54.0818 	 1.010 	 53.170
0.1160836 	 1.6044882 	 65.0746 	 1.012 	 53.345
0.1322516 	 1.7185328 	 75.6094 	 1.013 	 53.479
0.1476901 	 1.8364568 	 86.0505 	 1.014 	 53.595
0.1624469 	 1.9623395 	 95.8398 	 1.016 	 53.568
0.1765740 	 2.0924029 	 105.4842 	 1.019 	 53.542
0.1901064 	 2.2267209 	 115.5787 	 1.022 	 53.526
0.2030696 	 2.3658500 	 126.8916 	 1.023 	 53.493
0.2155176 	 2.5089216 	 136.6218 	 1.025 	 53.488
0.2274850 	 2.6569645 	 146.9796 	 1.027 	 53.498
0.2389979 	 2.8090808 	 156.0258 	 1.029 	 53.461
0.2500755 	 2.9655868 	 167.0952 	 1.031 	 53.458
0.2607522 	 3.1265225 	 178.7095 	 1.034 	 53.431
0.2710444 	 3.2912733 	 190.5348 	 1.034 	 53.412
0.2809846 	 3.4607885 	 199.7810 	 1.037 	 53.408
0.2905802 	 3.6343538 	 209.7952 	 1.039 	 53.392
0.2998528 	 3.8117932 	 220.8260 	 1.040 	 53.383
0.3088203 	 3.9946157 	 231.4182 	 1.043 	 53.386
0.3175008 	 4.1799772 	 241.8014 	 1.045 	 53.341
0.3259086 	 4.3702816 	 253.7061 	 1.047 	 53.342
0.3340518 	 4.5646993 	 263.2325 	 1.049 	 53.327
0.3419440 	 4.7626692 	 273.3203 	 1.050 	 53.322
0.3495961 	 4.9637116 	 283.9354 	 1.053 	 53.298
0.3570214 	 5.1698915 	 294.8675 	 1.055 	 53.306
0.3642313 	 5.3804745 	 303.3737 	 1.056 	 53.280
0.3712407 	 5.5943875 	 311.0843 	 1.058 	 53.247
0.3780534 	 5.8126826 	 320.1088 	 1.059 	 53.242
0.3846790 	 6.0336993 	 331.3340 	 1.061 	 53.227
0.3911264 	 6.2603304 	 341.4647 	 1.063 	 53.216
0.3973955 	 6.4921275 	 352.9772 	 1.065 	 53.227
0.4035039 	 6.7247475 	 362.0753 	 1.067 	 53.201
0.4094499 	 6.9613288 	 371.1059 	 1.069 	 53.170
0.4152445 	 7.2017937 	 381.4352 	 1.070 	 53.148
0.4208959 	 7.4500026 	 392.4575 	 1.070 	 53.157
0.4264077 	 7.6984071 	 401.6614 	 1.073 	 53.133
0.4317792 	 7.9529753 	 411.8880 	 1.075 	 53.147
0.4370236 	 8.2094466 	 422.5603 	 1.075 	 53.113
0.4421468 	 8.4692087 	 432.8675 	 1.077 	 53.101
0.4471491 	 8.7329727 	 439.8876 	 1.078 	 53.097
0.4520324 	 9.0046411 	 448.9341 	 1.080 	 53.081
0.4568033 	 9.2750141 	 458.2775 	 1.082 	 53.071
0.4614738 	 9.5532677 	 470.1114 	 1.082 	 53.049
0.4660345 	 9.8298334 	 479.8907 	 1.082 	 53.051
0.4704952 	 10.1150086 	 495.1955 	 1.084 	 53.037
0.4748603 	 10.4005917 	 505.9534 	 1.085 	 53.007
0.4791309 	 10.6907032 	 514.7304 	 1.086 	 52.992
0.4833117 	 10.9880707 	 523.4840 	 1.087 	 53.003
0.4874088 	 11.2879622 	 532.3178 	 1.088 	 52.991
0.4914159 	 11.5841360 	 547.7398 	 1.088 	 52.983
0.4953447 	 11.8915478 	 562.9112 	 1.089 	 52.955
0.4991958 	 12.2005020 	 569.8098 	 1.090 	 52.967
0.5029680 	 12.5179600 	 583.0363 	 1.090 	 52.963
0.5066633 	 12.8300236 	 591.1776 	 1.091 	 52.937
0.5102878 	 13.1559555 	 604.3451 	 1.091 	 52.929
0.5138416 	 13.4799343 	 613.4704 	 1.091 	 52.919
0.5173309 	 13.8088148 	 620.8122 	 1.091 	 52.903
0.5207520 	 14.1391607 	 636.0997 	 1.092 	 52.901
0.5241066 	 14.4731404 	 653.1318 	 1.091 	 52.885
0.5274006 	 14.8166486 	 669.7832 	 1.092 	 52.886
0.5306333 	 15.1698720 	 685.4051 	 1.091 	 52.885
0.5338060 	 15.5151074 	 705.3092 	 1.092 	 52.857
0.5369253 	 15.8622573 	 721.7518 	 1.090 	 52.860
0.5399849 	 16.2224241 	 746.0504 	 1.090 	 52.846
0.5429916 	 16.5797932 	 772.5422 	 1.089 	 52.837
0.5459461 	 16.9393626 	 808.5731 	 1.088 	 52.823
0.5488457 	 17.3044965 	 858.1511 	 1.088 	 52.788
0.5516962 	 17.6861409 	 914.6156 	 1.088 	 52.830
0.5544979 	 18.0633383 	 983.6946 	 1.087 	 52.816
0.5572515 	 18.4442871 	 1095.3693 	 1.087 	 52.794
0.5599602 	 18.8335515 	 1248.2625 	 1.085 	 52.812
0.5626223 	 19.2260379 	 1466.0025 	 1.086 	 52.784
0.5652398 	 19.6177102 	 1844.1895 	 1.084 	 52.798
0.5678125 	 20.0254722 	 2422.7872 	 1.084 	 52.769
0.5703434 	 20.4430875 	 3296.7608 	 1.082 	 52.767
0.5728303 	 20.8537315 	 4648.0424 	 1.081 	 52.768
0.5752747 	 21.2851658 	 6826.9176 	 1.079 	 52.751
0.5776785 	 21.7334579 	 9930.4284 	 1.077 	 52.754
0.5800399 	 22.2121570 	 13874.6258 	 1.075 	 52.743
0.5823553 	 22.7087577 	 19251.9003 	 1.072 	 52.768
0.5846277 	 23.2267224 	 25611.5368 	 1.069 	 52.773
0.5868528 	 23.7605607 	 33164.3819 	 1.065 	 52.764
0.5890347 	 24.3363004 	 41764.5579 	 1.061 	 52.759
0.5911692 	 24.9437681 	 51072.1919 	 1.056 	 52.746
0.5932554 	 25.5804412 	 61742.6337 	 1.051 	 52.756
0.5952945 	 26.2463216 	 72800.1564 	 1.046 	 52.750
0.5972870 	 26.9483098 	 84944.3760 	 1.040 	 52.771
0.5992302 	 27.6814526 	 97922.6622 	 1.035 	 52.772
0.6011270 	 28.4472128 	 111029.5085 	 1.031 	 52.767
0.6029745 	 29.2516617 	 125085.0358 	 1.027 	 52.770
0.6047758 	 30.0765364 	 139073.7328 	 1.023 	 52.762
0.6065294 	 30.9566735 	 151716.9814 	 1.021 	 52.744
0.6082380 	 31.8474714 	 165862.8538 	 1.017 	 52.750
0.6099004 	 32.7673678 	 180700.4833 	 1.015 	 52.730
0.6115196 	 33.7235194 	 200613.9249 	 1.011 	 52.731
0.6130971 	 34.6894183 	 230560.7559 	 1.008 	 52.712
0.6146320 	 35.6679751 	 266578.4223 	 1.006 	 52.674
0.6161263 	 36.7215685 	 314937.4343 	 1.003 	 52.707
0.6175820 	 37.7673373 	 375384.6731 	 1.001 	 52.671
0.6189991 	 38.8619431 	 442946.3701 	 0.997 	 52.649
0.6203775 	 39.9813590 	 514596.4862 	 0.992 	 52.641
0.6217190 	 41.1575512 	 588497.3347 	 0.987 	 52.604
0.6230239 	 42.3746850 	 656400.6041 	 0.982 	 52.613
0.6242929 	 43.6572795 	 714703.9421 	 0.975 	 52.624
0.6255258 	 45.0012149 	 751646.8709 	 0.970 	 52.650
0.6267236 	 46.3786074 	 773923.7393 	 0.962 	 52.659
0.6278873 	 47.7895316 	 774493.5025 	 0.956 	 52.676
0.6290180 	 49.2278428 	 753394.0346 	 0.947 	 52.702
