N=60 	 R=1000000 	 s=1 	 Save [density, Z, rho_t, like/unlike, events per sweep]
0.0002261 	 1.0008580 	 1.1026 	 0.986 	 7.113
0.0220651 	 1.1832346 	 12.0351 	 0.960 	 35.135
0.0428538 	 1.2259610 	 22.7295 	 0.998 	 47.963
0.0625754 	 1.3034346 	 33.1456 	 1.007 	 51.564
0.0812783 	 1.3960842 	 43.4772 	 1.008 	 52.658
0.0990826 	 1.4966060 	 53.3989 	 1.010 	 53.121
0.1160483 	 1.6043806 	 63.7636 	 1.011 	 53.375
0.1322260 	 1.7183547 	 74.2220 	 1.013 	 53.461
0.1476682 	 1.8364987 	 85.1730 	 1.015 	 53.596
0.1624331 	 1.9623260 	 95.4400 	 1.017 	 53.594
0.1765589 	 2.0925144 	 106.5238 	 1.019 	 53.547
0.1900838 	 2.2261383 	 117.3565 	 1.020 	 53.510
0.2030484 	 2.3658443 	 128.1304 	 1.024 	 53.517
0.2155136 	 2.5092601 	 137.6762 	 1.025 	 53.492
0.2274901 	 2.6570161 	 147.5220 	 1.027 	 53.477
0.2389954 	 2.8092337 	 157.8791 	 1.029 	 53.452
0.2500792 	 2.9653508 	 167.1604 	 1.031 	 53.445
0.2607478 	 3.1261145 	 177.7214 	 1.033 	 53.442
0.2710433 	 3.2909266 	 189.3608 	 1.035 	 53.404
0.2809805 	 3.4603205 	 200.2034 	 1.036 	 53.387
0.2905759 	 3.6334871 	 210.2865 	 1.038 	 53.367
0.2998491 	 3.8115281 	 219.5206 	 1.040 	 53.384
0.3088133 	 3.9941308 	 227.9549 	 1.043 	 53.369
0.3174868 	 4.1791885 	 238.1060 	 1.044 	 53.360
0.3258859 	 4.3685803 	 248.2849 	 1.047 	 53.337
0.3340312 	 4.5636291 	 257.7670 	 1.049 	 53.334
0.3419251 	 4.7606145 	 266.6184 	 1.050 	 53.300
0.3495850 	 4.9641127 	 276.5052 	 1.052 	 53.297
0.3570162 	 5.1711477 	 289.8854 	 1.054 	 53.306
0.3642306 	 5.3793517 	 298.9932 	 1.057 	 53.263
0.3712366 	 5.5927687 	 308.1315 	 1.058 	 53.258
0.3780502 	 5.8116360 	 320.0232 	 1.060 	 53.233
0.3846683 	 6.0342145 	 328.6825 	 1.061 	 53.238
0.3911056 	 6.2611735 	 337.7272 	 1.064 	 53.237
0.3973840 	 6.4907131 	 347.9102 	 1.066 	 53.224
0.4034950 	 6.7244729 	 359.4171 	 1.067 	 53.197
0.4094413 	 6.9626008 	 369.2381 	 1.069 	 53.161
0.4152359 	 7.2047773 	 381.0658 	 1.070 	 53.164
0.4208850 	 7.4483547 	 391.4881 	 1.071 	 53.161
0.4263954 	 7.6983926 	 402.1520 	 1.073 	 53.141
0.4317730 	 7.9494381 	 410.5985 	 1.075 	 53.127
0.4370188 	 8.2079656 	 425.2302 	 1.075 	 53.116
0.4421402 	 8.4690021 	 432.9052 	 1.078 	 53.105
0.4471442 	 8.7349264 	 446.0525 	 1.079 	 53.097
0.4520305 	 9.0028219 	 461.3610 	 1.080 	 53.071
0.4568024 	 9.2732073 	 470.7057 	 1.080 	 53.070
0.4614668 	 9.5504149 	 484.0882 	 1.082 	 53.065
0.4660295 	 9.8292910 	 495.1062 	 1.083 	 53.053
0.4704928 	 10.1120081 	 508.1090 	 1.085 	 53.030
0.4748598 	 10.4003678 	 518.5505 	 1.085 	 53.011
0.4791351 	 10.6873621 	 526.7391 	 1.085 	 52.996
0.4833174 	 10.9872067 	 536.3826 	 1.087 	 52.992
0.4874117 	 11.2822064 	 545.6238 	 1.088 	 52.995
0.4914217 	 11.5845242 	 555.7079 	 1.088 	 52.961
0.4953504 	 11.8927533 	 565.7643 	 1.090 	 52.955
0.4992013 	 12.2033700 	 570.9492 	 1.090 	 52.953
0.5029721 	 12.5159914 	 585.2530 	 1.091 	 52.930
0.5066679 	 12.8380940 	 599.1107 	 1.091 	 52.972
0.5102893 	 13.1578932 	 610.0886 	 1.091 	 52.938
0.5138409 	 13.4778213 	 623.8708 	 1.090 	 52.900
0.5173283 	 13.8066183 	 638.2582 	 1.091 	 52.880
0.5207498 	 14.1399562 	 653.8860 	 1.091 	 52.901
0.5241052 	 14.4798502 	 670.9853 	 1.092 	 52.879
0.5273993 	 14.8208692 	 681.3021 	 1.090 	 52.881
0.5306313 	 15.1627011 	 700.6380 	 1.091 	 52.878
0.5338049 	 15.5053485 	 719.6850 	 1.091 	 52.870
0.5369221 	 15.8518782 	 742.5082 	 1.091 	 52.845
0.5399852 	 16.2118917 	 769.1258 	 1.091 	 52.857
0.5429933 	 16.5704521 	 795.9835 	 1.090 	 52.838
0.5459469 	 16.9334626 	 845.5454 	 1.090 	 52.838
0.5488516 	 17.3016093 	 910.5609 	 1.089 	 52.829
0.5517070 	 17.6684531 	 1021.9858 	 1.089 	 52.838
0.5545128 	 18.0426287 	 1208.6536 	 1.089 	 52.825
0.5572735 	 18.4082494 	 1532.0168 	 1.088 	 52.817
0.5599883 	 18.7859537 	 2080.5751 	 1.086 	 52.804
0.5626573 	 19.1514879 	 2996.0469 	 1.086 	 52.794
0.5652832 	 19.5457410 	 4520.3195 	 1.085 	 52.798
0.5678706 	 19.9202974 	 7219.1686 	 1.083 	 52.774
0.5704146 	 20.2972523 	 11728.9623 	 1.078 	 52.778
0.5729233 	 20.6695983 	 18733.1181 	 1.071 	 52.755
0.5753951 	 21.0327701 	 31155.8883 	 1.059 	 52.771
0.5778354 	 21.3708745 	 53859.4397 	 1.039 	 52.803
0.5802474 	 21.6772183 	 96286.4687 	 1.013 	 52.851
0.5826364 	 21.9375950 	 175855.2182 	 0.976 	 52.891
0.5850064 	 22.1979086 	 300334.0201 	 0.935 	 52.958
0.5873537 	 22.4984640 	 454149.3511 	 0.896 	 53.028
0.5896761 	 22.8821869 	 608935.2912 	 0.863 	 53.103
0.5919610 	 23.3524314 	 744093.9949 	 0.840 	 53.168
0.5942011 	 23.9180532 	 840140.2485 	 0.824 	 53.187
0.5963914 	 24.5625847 	 904543.4924 	 0.816 	 53.210
0.5985273 	 25.2694422 	 944092.3559 	 0.811 	 53.200
0.6006086 	 26.0387818 	 967400.4338 	 0.809 	 53.224
0.6026299 	 26.8333145 	 981274.2793 	 0.808 	 53.228
0.6045965 	 27.6707971 	 988653.1152 	 0.809 	 53.221
0.6065058 	 28.5430035 	 993226.5027 	 0.808 	 53.193
0.6083606 	 29.4591164 	 996074.2664 	 0.809 	 53.193
0.6101612 	 30.4165371 	 997609.6238 	 0.810 	 53.186
0.6119087 	 31.3987942 	 998264.8817 	 0.811 	 53.171
0.6136028 	 32.4134151 	 998876.3827 	 0.812 	 53.160
0.6152467 	 33.4817574 	 999330.1423 	 0.813 	 53.165
0.6168415 	 34.5954979 	 999520.0861 	 0.814 	 53.171
0.6183879 	 35.7323339 	 999628.0487 	 0.815 	 53.140
0.6198854 	 36.9150993 	 999656.0454 	 0.816 	 53.128
0.6213386 	 38.1435609 	 999816.0162 	 0.817 	 53.092
0.6227464 	 39.4239952 	 999880.0062 	 0.818 	 53.098
0.6241102 	 40.7515271 	 999924.0026 	 0.818 	 53.101
0.6254315 	 42.1261989 	 999946.0015 	 0.819 	 53.084
0.6267106 	 43.5425784 	 999982.0002 	 0.820 	 53.075
0.6279494 	 45.0347508 	 1000000.0000 	 0.820 	 53.049
0.6291490 	 46.5565064 	 1000000.0000 	 0.821 	 53.037
