N=60 	 R=1000000 	 s=1 	 Save [density, Z, rho_t, like/unlike, events per sweep]
0.0002228 	 1.0008399 	 1.1025 	 0.996 	 7.111
0.0220534 	 1.1832644 	 12.0429 	 0.961 	 35.124
0.0428514 	 1.2259546 	 22.5973 	 0.998 	 47.974
0.0625877 	 1.3036208 	 33.1414 	 1.006 	 51.567
0.0812940 	 1.3960973 	 43.3108 	 1.008 	 52.658
0.0990899 	 1.4967759 	 53.7366 	 1.009 	 53.125
0.1160412 	 1.6044739 	 64.3792 	 1.010 	 53.370
0.1322143 	 1.7181722 	 74.8245 	 1.013 	 53.463
0.1476484 	 1.8363852 	 84.9902 	 1.015 	 53.598
0.1624232 	 1.9620326 	 95.1290 	 1.016 	 53.569
0.1765514 	 2.0922228 	 105.9936 	 1.020 	 53.561
0.1900817 	 2.2267350 	 116.7951 	 1.021 	 53.530
0.2030549 	 2.3652744 	 127.2917 	 1.023 	 53.500
0.2155169 	 2.5086656 	 138.2143 	 1.025 	 53.484
0.2274840 	 2.6570582 	 148.1697 	 1.027 	 53.458
0.2389877 	 2.8089177 	 157.7909 	 1.029 	 53.460
0.2500742 	 2.9661942 	 169.2280 	 1.031 	 53.460
0.2607525 	 3.1258767 	 178.4207 	 1.034 	 53.423
0.2710437 	 3.2913837 	 188.6376 	 1.035 	 53.428
0.2809742 	 3.4606599 	 200.2162 	 1.037 	 53.408
0.2905677 	 3.6345934 	 213.2694 	 1.039 	 53.400
0.2998428 	 3.8112111 	 224.0917 	 1.040 	 53.379
0.3088004 	 3.9936332 	 232.8156 	 1.043 	 53.365
0.3174759 	 4.1782235 	 242.9543 	 1.045 	 53.361
0.3258671 	 4.3684811 	 251.8708 	 1.047 	 53.340
0.3340055 	 4.5621963 	 260.2759 	 1.048 	 53.323
0.3419019 	 4.7627601 	 268.7321 	 1.050 	 53.324
0.3495567 	 4.9627354 	 279.1129 	 1.052 	 53.293
0.3569830 	 5.1691172 	 290.7060 	 1.054 	 53.273
0.3641934 	 5.3776332 	 301.4514 	 1.056 	 53.268
0.3712057 	 5.5934515 	 311.8013 	 1.058 	 53.254
0.3780195 	 5.8109856 	 322.9374 	 1.060 	 53.243
0.3846489 	 6.0340781 	 332.1615 	 1.062 	 53.228
0.3910942 	 6.2590412 	 345.3226 	 1.063 	 53.217
0.3973681 	 6.4881481 	 356.2307 	 1.066 	 53.204
0.4034731 	 6.7237477 	 367.8396 	 1.067 	 53.218
0.4094233 	 6.9626114 	 380.9001 	 1.068 	 53.199
0.4152181 	 7.2014125 	 393.4642 	 1.070 	 53.173
0.4208658 	 7.4468384 	 402.4247 	 1.071 	 53.144
0.4263757 	 7.6983589 	 412.8380 	 1.072 	 53.146
0.4317515 	 7.9495653 	 422.9557 	 1.074 	 53.122
0.4369981 	 8.2087283 	 431.8083 	 1.076 	 53.101
0.4421190 	 8.4690181 	 442.5818 	 1.077 	 53.114
0.4471234 	 8.7334997 	 453.2100 	 1.078 	 53.100
0.4520050 	 9.0020218 	 465.5277 	 1.081 	 53.077
0.4567793 	 9.2728956 	 473.3254 	 1.081 	 53.069
0.4614485 	 9.5514022 	 481.8407 	 1.082 	 53.065
0.4660106 	 9.8271592 	 491.4161 	 1.083 	 53.049
0.4704692 	 10.1102710 	 503.2152 	 1.083 	 53.034
0.4748353 	 10.3969499 	 514.6080 	 1.084 	 53.020
0.4791101 	 10.6884674 	 525.0150 	 1.085 	 52.995
0.4832925 	 10.9836495 	 538.0149 	 1.085 	 52.988
0.4873889 	 11.2854389 	 553.8442 	 1.087 	 52.993
0.4913987 	 11.5905508 	 563.6155 	 1.087 	 53.005
0.4953288 	 11.8936471 	 571.7256 	 1.088 	 52.978
0.4991775 	 12.1977552 	 583.8515 	 1.088 	 52.960
0.5029497 	 12.5155683 	 591.3033 	 1.088 	 52.951
0.5066462 	 12.8300265 	 598.4754 	 1.089 	 52.943
0.5102693 	 13.1476900 	 613.0174 	 1.090 	 52.918
0.5138266 	 13.4743990 	 627.5722 	 1.090 	 52.896
0.5173116 	 13.8041408 	 641.7244 	 1.091 	 52.923
0.5207325 	 14.1376955 	 652.0108 	 1.089 	 52.898
0.5240885 	 14.4760631 	 662.6544 	 1.091 	 52.897
0.5273805 	 14.8155512 	 678.3550 	 1.090 	 52.875
0.5306150 	 15.1612282 	 696.2674 	 1.090 	 52.873
0.5337874 	 15.5091546 	 711.6339 	 1.090 	 52.861
0.5369036 	 15.8595023 	 732.8830 	 1.091 	 52.838
0.5399635 	 16.2147468 	 754.8958 	 1.091 	 52.848
0.5429728 	 16.5820550 	 780.6772 	 1.089 	 52.832
0.5459239 	 16.9447997 	 812.0380 	 1.090 	 52.830
0.5488255 	 17.3162826 	 854.8940 	 1.089 	 52.826
0.5516782 	 17.6940894 	 921.4851 	 1.088 	 52.826
0.5544797 	 18.0667930 	 1014.1334 	 1.088 	 52.796
0.5572323 	 18.4553248 	 1153.6185 	 1.089 	 52.817
0.5599378 	 18.8353852 	 1375.4613 	 1.088 	 52.796
0.5625988 	 19.2304318 	 1693.3061 	 1.088 	 52.791
0.5652149 	 19.6231758 	 2149.8393 	 1.088 	 52.798
0.5677879 	 20.0351178 	 2807.2616 	 1.089 	 52.795
0.5703153 	 20.4560019 	 3694.9090 	 1.090 	 52.782
0.5727993 	 20.8908190 	 4951.2959 	 1.090 	 52.801
0.5752403 	 21.3269954 	 6757.1870 	 1.092 	 52.750
0.5776349 	 21.8095801 	 9086.5169 	 1.092 	 52.791
0.5799872 	 22.2949875 	 11944.1301 	 1.094 	 52.770
0.5822931 	 22.8152034 	 15523.9238 	 1.095 	 52.799
0.5845530 	 23.3509181 	 20018.6565 	 1.097 	 52.758
0.5867663 	 23.9158696 	 25923.2774 	 1.099 	 52.800
0.5889302 	 24.4978948 	 32948.5282 	 1.098 	 52.780
0.5910505 	 25.1126769 	 40517.1743 	 1.099 	 52.809
0.5931211 	 25.7391681 	 50081.4598 	 1.098 	 52.795
0.5951487 	 26.3910622 	 61316.2157 	 1.097 	 52.838
0.5971308 	 27.0523261 	 72426.3701 	 1.093 	 52.842
0.5990667 	 27.7634735 	 86775.8413 	 1.089 	 52.878
0.6009576 	 28.4953852 	 102158.1324 	 1.086 	 52.890
0.6028038 	 29.2572362 	 121263.7796 	 1.081 	 52.916
0.6046064 	 30.0605951 	 141455.1266 	 1.076 	 52.941
0.6063632 	 30.8977956 	 162496.2023 	 1.071 	 52.955
0.6080740 	 31.7752631 	 182300.9901 	 1.067 	 52.981
0.6097394 	 32.7071758 	 200254.8545 	 1.062 	 52.992
0.6113604 	 33.6720599 	 216998.8319 	 1.060 	 53.004
0.6129377 	 34.6663550 	 231589.3132 	 1.056 	 53.001
0.6144722 	 35.7399816 	 241744.1144 	 1.053 	 53.017
0.6159634 	 36.8263738 	 250565.7284 	 1.050 	 53.010
0.6174135 	 37.9520717 	 255764.3389 	 1.049 	 52.999
0.6188212 	 39.1401237 	 257416.1437 	 1.048 	 53.002
0.6201885 	 40.3571150 	 261192.4338 	 1.045 	 52.978
0.6215160 	 41.5958476 	 263871.5889 	 1.042 	 52.983
0.6228053 	 42.8692773 	 269536.3323 	 1.039 	 52.998
0.6240597 	 44.1634465 	 279241.9982 	 1.035 	 52.955
0.6252771 	 45.5143567 	 294414.8998 	 1.031 	 52.969
0.6264617 	 46.8601472 	 321282.3470 	 1.026 	 52.951
0.6276138 	 48.2533567 	 353272.4075 	 1.020 	 52.935
0.6287336 	 49.7058522 	 394741.8441 	 1.015 	 52.988
0.6298212 	 51.2015578 	 437279.0659 	 1.010 	 52.958
